1,0.776,0.43,0.304,0.205,0.119,0.0774,0.0495,0.0161,0.0344,0.0371,0.00806,0.0532,0.0328,0.0522,0.0543,0.0629,0.0672,0.0468,0.0715,0.079,0.0898,0.106,0.112,0.145,0.192,0.201,0.217,0.216,0.258,0.28,0.263,0.268,0.23,0.229,0.198,0.157,0.137,0.104,0.0995,0.0903,0.11,0.0796,0.0591,0.0828,0.0548,0.0683,0.0554,0.0565,0.0522,0.0366,0.0457,0.0511,0.0355,0.0731,0.0737,0.0565,0.0581,0.0581,0.0887,0.0661,0.0656,0.071,0.0355,0.0398,0.0247,0.0511,0.0452,0.0382,0.057,0.0435,0.072,0.0425,0.0645,0.0769,0.0855,0.102,0.111,0.0995,0.125,0.137,0.134,0.126,0.093,0.116,0.0962,0.0624,0.0435,0.0226,0.0392,0,0.0409,0.0457,0.0414,0.05,0.0371,0.0425,0.0199,0.0323,0.108,0.297,0.763,0.989,0.655,0.385,0.244,0.183,0.0935,0.0263,0.0446,0.0323,0.0468,0.0581,0.0522,0.0715,0.0645,0.0796,0.0677,0.072,0.0747,0.0812,0.111,0,0,0,0,0,0,0,0,0,0,0,0,0,0,0,0,0,0,0,0,0,0,0,0,0,0,0,0,0,0,0,0,0,0,0,0,0,0,0,0,0,0,0,0,0,0,0,0,0,0,0,0,0,0,0,0,0,0,0,0,0,0,0,0,0,1
0.985,0.553,0.159,0,0.00892,0.0312,0.0943,0.174,0.158,0.169,0.141,0.168,0.168,0.165,0.184,0.19,0.21,0.218,0.222,0.262,0.263,0.282,0.335,0.319,0.382,0.423,0.445,0.478,0.484,0.478,0.462,0.422,0.396,0.32,0.262,0.239,0.187,0.157,0.139,0.142,0.124,0.127,0.154,0.136,0.128,0.139,0.117,0.127,0.127,0.128,0.124,0.147,0.136,0.143,0.148,0.143,0.143,0.146,0.154,0.143,0.134,0.133,0.183,0.118,0.149,0.127,0.141,0.161,0.145,0.154,0.143,0.141,0.197,0.187,0.243,0.254,0.278,0.336,0.31,0.273,0.227,0.168,0.131,0.136,0.135,0.113,0.0987,0.115,0.103,0.114,0.072,0.106,0.262,0.384,0.455,0.75,1,0.499,0.171,0.0529,0.0446,0.0739,0.15,0.152,0.145,0.177,0.17,0.203,0.213,0.226,0.222,0.236,0.254,0.255,0.259,0.306,0.31,0,0,0,0,0,0,0,0,0,0,0,0,0,0,0,0,0,0,0,0,0,0,0,0,0,0,0,0,0,0,0,0,0,0,0,0,0,0,0,0,0,0,0,0,0,0,0,0,0,0,0,0,0,0,0,0,0,0,0,0,0,0,0,0,0,0,0,0,0,0,1
1,0.591,0.268,0.115,0.114,0.0605,0.0424,0.0316,0.0289,0.0251,0.0196,0.0184,0.0193,0.0237,0.0266,0.0286,0.0234,0.0242,0.0333,0.0415,0.0491,0.0485,0.0613,0.0745,0.0903,0.111,0.133,0.158,0.172,0.188,0.203,0.224,0.237,0.241,0.231,0.218,0.196,0.162,0.132,0.105,0.0795,0.0669,0.0532,0.0535,0.0514,0.0514,0.0505,0.0432,0.0374,0.0438,0.0467,0.0526,0.054,0.0511,0.0526,0.0555,0.0549,0.0578,0.0581,0.0593,0.0578,0.0611,0.0622,0.0616,0.0643,0.0657,0.0669,0.0631,0.0684,0.073,0.0736,0.0762,0.0789,0.0865,0.0862,0.0844,0.0847,0.0853,0.0894,0.0844,0.0844,0.0833,0.0821,0.0757,0.0663,0.0625,0.0637,0.0628,0.0602,0.0616,0.0608,0.0602,0.0619,0.0596,0.0678,0.0687,0.066,0.0584,0.0514,0.0485,0.0441,0.0412,0.04,0.0389,0.0406,0.0502,0.0561,0.0602,0.0643,0.0695,0.0716,0.0704,0.0727,0.0687,0.0669,0.0616,0.0613,0.0622,0.0608,0.0634,0.0619,0.064,0.0689,0.0888,0.108,0.0926,0.0932,0.0987,0.0871,0.05,0.0333,0.033,0.0321,0.0321,0.0204,0.0187,0.021,0.0213,0.0242,0.0266,0.0321,0.0263,0,0.057,0.209,0.326,0.529,0.911,0.973,0.556,0.306,0.188,0.174,0.13,0.108,0.0926,0.09,0.0876,0.0882,0.0871,0.0856,0.0897,0.0935,0.0996,0.101,0.106,0.109,0.115,0.125,0.135,0.143,0.153,0.165,0.181,0.201,0.211,0.225,0,0,0,0,0,0,0,0,0,0,0
0.991,0.871,0.302,0.0917,0.144,0.0936,0.0642,0.0502,0.0425,0.0453,0.04,0.0444,0.0492,0.0511,0.0579,0.0666,0.069,0.0815,0.0786,0.0762,0.0854,0.0941,0.0912,0.0945,0.0979,0.11,0.112,0.12,0.133,0.144,0.162,0.18,0.195,0.21,0.213,0.225,0.238,0.25,0.244,0.217,0.199,0.174,0.151,0.132,0.108,0.0931,0.0859,0.0815,0.0791,0.0791,0.082,0.082,0.0767,0.0757,0.0699,0.0719,0.069,0.0699,0.0748,0.0786,0.0743,0.0796,0.0897,0.0844,0.0839,0.0806,0.0825,0.0878,0.0757,0.0757,0.0714,0.0661,0.0632,0.0714,0.0603,0.0579,0.0569,0.0661,0.0555,0.0507,0.0589,0.056,0.054,0.0482,0.0449,0.042,0.0425,0.0511,0.0468,0.0478,0.0482,0.0458,0.0487,0.0507,0.0584,0.0545,0.0637,0.0593,0.0574,0.0449,0.0531,0.0671,0.105,0.127,0.126,0.134,0.157,0.164,0.17,0.162,0.101,0.0839,0.0656,0.0507,0.0352,0.0299,0.014,0.0121,0.0164,0.0164,0,0.00482,0.0728,0.384,0.905,1,0.474,0.116,0.137,0.135,0.0888,0.0632,0.054,0.0545,0.0487,0.0434,0.0473,0.0502,0.0507,0.0497,0.0555,0.0627,0.0642,0.0738,0.0801,0.083,0.0859,0.0907,0,0,0,0,0,0,0,0,0,0,0,0,0,0,0,0,0,0,0,0,0,0,0,0,0,0,0,0,0,0,0,0,0,0,0,0,0,0,0,0
1,0.976,0.677,0.462,0.209,0,0.0346,0.104,0.213,0.375,0.501,0.552,0.577,0.575,0.584,0.586,0.585,0.592,0.588,0.59,0.597,0.589,0.598,0.595,0.595,0.59,0.585,0.588,0.582,0.592,0.589,0.595,0.599,0.592,0.595,0.594,0.594,0.598,0.596,0.591,0.59,0.586,0.594,0.594,0.601,0.602,0.59,0.603,0.602,0.595,0.589,0.579,0.586,0.596,0.594,0.598,0.593,0.601,0.596,0.593,0.59,0.592,0.597,0.603,0.596,0.591,0.596,0.591,0.582,0.587,0.594,0.586,0.591,0.59,0.586,0.591,0.591,0.587,0.582,0.592,0.587,0.587,0.587,0.59,0.599,0.586,0.584,0.587,0.597,0.593,0.59,0.581,0.59,0.585,0.586,0.589,0.584,0.599,0.585,0.585,0.591,0.599,0.586,0.593,0.598,0.591,0.601,0.6,0.598,0.593,0.6,0.606,0.592,0.605,0.623,0.65,0.661,0.662,0.623,0.67,0.632,0.618,0.617,0.639,0.629,0.604,0.568,0.584,0.575,0.58,0.585,0.574,0.577,0.582,0.598,0.583,0.582,0.58,0.582,0.607,0.662,0.686,0.744,0.963,0.983,0.727,0.506,0.277,0.0716,0.0946,0.125,0.244,0.385,0.521,0.571,0.582,0.587,0.581,0.593,0.596,0.589,0.604,0.611,0.594,0.602,0.603,0.604,0.605,0.597,0.608,0.609,0,0,0,0,0,0,0,0,0,0,0,0,0,0,0,0,1
0.934,0.873,0.622,0.293,0.0984,0,0.0771,0.13,0.133,0.139,0.146,0.162,0.176,0.177,0.188,0.202,0.192,0.192,0.198,0.193,0.197,0.209,0.22,0.222,0.234,0.238,0.255,0.271,0.296,0.318,0.345,0.373,0.389,0.402,0.406,0.399,0.381,0.351,0.321,0.284,0.256,0.237,0.212,0.204,0.197,0.192,0.19,0.185,0.191,0.194,0.191,0.186,0.183,0.18,0.186,0.185,0.187,0.182,0.173,0.175,0.169,0.164,0.164,0.169,0.171,0.177,0.173,0.171,0.175,0.177,0.185,0.178,0.177,0.181,0.174,0.17,0.17,0.168,0.17,0.162,0.163,0.173,0.167,0.17,0.159,0.165,0.167,0.163,0.158,0.168,0.163,0.169,0.184,0.186,0.196,0.195,0.2,0.2,0.203,0.226,0.237,0.246,0.256,0.292,0.315,0.325,0.314,0.302,0.282,0.28,0.26,0.216,0.182,0.178,0.182,0.187,0.178,0.175,0.151,0.172,0.255,0.611,1,0.887,0.554,0.31,0.11,0.0313,0.11,0.16,0.156,0.154,0.165,0.166,0.176,0.182,0.2,0.21,0.209,0.212,0.22,0.221,0.224,0.234,0.239,0.245,0,0,0,0,0,0,0,0,0,0,0,0,0,0,0,0,0,0,0,0,0,0,0,0,0,0,0,0,0,0,0,0,0,0,0,0,0,0,0,0,0,0
0.929,0.844,0.363,0.232,0.0698,0.0274,0.0843,0.0804,0.0852,0.094,0.103,0.0976,0.0918,0.0932,0.105,0.106,0.112,0.102,0.105,0.115,0.115,0.125,0.112,0.117,0.119,0.112,0.115,0.108,0.102,0.107,0.0817,0.0936,0.06,0.0645,0.0706,0.0609,0.079,0.0909,0.111,0.129,0.14,0.16,0.144,0.157,0.158,0.157,0.15,0.139,0.156,0.157,0.151,0.148,0.155,0.153,0.157,0.146,0.152,0.148,0.151,0.151,0.141,0.153,0.146,0.152,0.151,0.144,0.161,0.139,0.143,0.142,0.15,0.146,0.141,0.144,0.14,0.135,0.159,0.143,0.149,0.142,0.14,0.152,0.148,0.143,0.137,0.136,0.148,0.134,0.15,0.144,0.138,0.147,0.138,0.148,0.149,0.155,0.199,0.206,0.236,0.231,0.24,0.26,0.275,0.27,0.226,0.175,0.151,0.127,0.134,0.117,0.115,0.128,0.112,0.094,0.0331,0,0.151,0.613,1,0.829,0.346,0.195,0.0411,0.0358,0.11,0.0905,0.112,0.0989,0.119,0.114,0.109,0.112,0.117,0.118,0.11,0.119,0,0,0,0,0,0,0,0,0,0,0,0,0,0,0,0,0,0,0,0,0,0,0,0,0,0,0,0,0,0,0,0,0,0,0,0,0,0,0,0,0,0,0,0,0,0,0,0,0,0,0,1
1,0.792,0.271,0.163,0.0997,0.068,0.131,0.187,0.195,0.199,0.22,0.214,0.204,0.209,0.191,0.205,0.195,0.177,0.186,0.175,0.173,0.18,0.165,0.167,0.179,0.172,0.181,0.178,0.168,0.155,0.152,0.156,0.138,0.141,0.138,0.119,0.134,0.146,0.165,0.202,0.211,0.255,0.252,0.277,0.276,0.271,0.265,0.29,0.295,0.281,0.276,0.272,0.281,0.275,0.307,0.294,0.286,0.295,0.278,0.289,0.269,0.315,0.316,0.309,0.309,0.315,0.316,0.312,0.297,0.293,0.301,0.306,0.3,0.292,0.305,0.31,0.309,0.321,0.293,0.303,0.299,0.31,0.297,0.284,0.313,0.283,0.278,0.295,0.297,0.266,0.263,0.269,0.278,0.268,0.256,0.269,0.276,0.278,0.275,0.263,0.275,0.27,0.264,0.249,0.282,0.276,0.271,0.284,0.243,0.271,0.278,0.302,0.364,0.395,0.481,0.481,0.567,0.615,0.577,0.526,0.45,0.4,0.372,0.311,0.259,0.263,0.243,0.255,0.271,0.252,0.262,0.24,0.167,0.15,0.454,0.904,0.704,0.163,0.135,0,0.0514,0.0894,0.139,0.154,0.178,0.165,0.16,0.165,0.158,0.159,0.15,0.149,0.144,0.146,0.143,0.146,0.14,0.132,0.129,0.141,0.128,0.112,0,0,0,0,0,0,0,0,0,0,0,0,0,0,0,0,0,0,0,0,0,0,0,0,0,1
1,0.922,0.694,0.368,0.171,0.165,0.0614,0.0443,0.025,0.0211,0.00834,0.014,0.0184,0.0298,0.0373,0.0355,0.0391,0.0408,0.0544,0.0601,0.0579,0.0737,0.0825,0.0992,0.12,0.137,0.159,0.179,0.198,0.212,0.2,0.213,0.211,0.199,0.182,0.171,0.156,0.118,0.107,0.0961,0.0992,0.0706,0.0623,0.075,0.0698,0.0698,0.0746,0.0623,0.0667,0.0715,0.0614,0.0671,0.0592,0.0667,0.0575,0.0584,0.054,0.0491,0.0527,0.054,0.0395,0.0597,0.0478,0.0452,0.0421,0.0399,0.0461,0.043,0.0355,0.0338,0.0364,0.0421,0.0228,0.047,0.0426,0.0417,0.036,0.0303,0.0351,0.0452,0.0391,0.0421,0.0294,0.0307,0.0404,0.0412,0.0369,0.0347,0.0386,0.0443,0.0588,0.0759,0.079,0.103,0.132,0.129,0.158,0.129,0.12,0.0772,0.0768,0.0812,0.0483,0.0246,0.0263,0.0206,0.0215,0.0057,0.0101,0.00834,0.0202,0.0132,0,0.121,0.298,0.556,0.932,0.923,0.688,0.382,0.154,0.166,0.0733,0.0491,0.032,0.0285,0.0237,0.014,0.0158,0.0189,0.0369,0.0325,0.036,0.0316,0.0303,0.0452,0.0562,0,0,0,0,0,0,0,0,0,0,0,0,0,0,0,0,0,0,0,0,0,0,0,0,0,0,0,0,0,0,0,0,0,0,0,0,0,0,0,0,0,0,0,0,0,0,0,0,0,0,1
1,0.848,0.321,0.236,0.112,0.0627,0.079,0.0804,0.0711,0.0776,0.0837,0.0903,0.087,0.101,0.0898,0.0762,0.108,0.0996,0.109,0.108,0.104,0.109,0.105,0.0992,0.112,0.108,0.109,0.103,0.112,0.117,0.118,0.128,0.132,0.149,0.162,0.182,0.203,0.218,0.248,0.246,0.231,0.222,0.198,0.199,0.19,0.184,0.186,0.18,0.184,0.201,0.184,0.205,0.193,0.199,0.196,0.194,0.198,0.192,0.191,0.196,0.18,0.177,0.165,0.159,0.176,0.159,0.166,0.164,0.171,0.171,0.169,0.182,0.168,0.171,0.175,0.17,0.175,0.176,0.175,0.169,0.162,0.175,0.166,0.157,0.158,0.141,0.155,0.156,0.167,0.164,0.155,0.164,0.162,0.169,0.176,0.175,0.198,0.181,0.203,0.236,0.257,0.256,0.254,0.293,0.287,0.272,0.258,0.198,0.192,0.154,0.132,0.144,0.137,0.132,0.133,0.118,0.0589,0,0.0879,0.528,0.902,0.921,0.404,0.277,0.151,0.0645,0.0617,0.05,0.0519,0.0599,0.0524,0.0697,0.0571,0.0594,0.0533,0.0529,0.0613,0.0496,0.0496,0.05,0.0496,0.0538,0.0496,0.0571,0.0753,0,0,0,0,0,0,0,0,0,0,0,0,0,0,0,0,0,0,0,0,0,0,0,0,0,0,0,0,0,0,0,0,0,0,0,0,0,0,0,0,0,0,1
1,0.756,0.529,0.158,0.0278,0.029,0.0963,0.161,0.182,0.197,0.204,0.206,0.211,0.22,0.21,0.222,0.228,0.227,0.234,0.219,0.236,0.238,0.242,0.254,0.242,0.265,0.28,0.28,0.305,0.305,0.333,0.357,0.384,0.413,0.413,0.448,0.463,0.462,0.471,0.439,0.446,0.42,0.388,0.351,0.289,0.274,0.247,0.218,0.221,0.192,0.192,0.2,0.19,0.195,0.186,0.204,0.212,0.212,0.224,0.209,0.223,0.222,0.217,0.211,0.208,0.215,0.209,0.21,0.209,0.192,0.193,0.207,0.201,0.2,0.2,0.198,0.194,0.191,0.192,0.186,0.197,0.189,0.186,0.191,0.175,0.193,0.198,0.189,0.196,0.181,0.199,0.189,0.19,0.188,0.181,0.189,0.188,0.18,0.186,0.171,0.182,0.175,0.176,0.177,0.177,0.184,0.173,0.173,0.172,0.161,0.177,0.181,0.18,0.202,0.206,0.217,0.239,0.248,0.226,0.183,0.178,0.174,0.162,0.151,0.135,0.148,0.15,0.152,0.134,0.275,0.47,0.735,0.973,0.643,0.402,0.0783,0,0.0129,0.0944,0.128,0.157,0.171,0.186,0.182,0.181,0.197,0.199,0.196,0.197,0.2,0.213,0.213,0.216,0.213,0.216,0.241,0.238,0.238,0,0,0,0,0,0,0,0,0,0,0,0,0,0,0,0,0,0,0,0,0,0,0,0,0,0,0,0,0,1
0.949,0.505,0.00418,0.0225,0.0595,0.107,0.11,0.111,0.117,0.118,0.113,0.132,0.13,0.133,0.137,0.151,0.158,0.156,0.18,0.187,0.2,0.225,0.24,0.275,0.287,0.314,0.337,0.347,0.354,0.34,0.317,0.268,0.224,0.18,0.156,0.135,0.114,0.107,0.105,0.0882,0.0937,0.101,0.0969,0.0966,0.095,0.0966,0.0953,0.0926,0.0993,0.103,0.104,0.106,0.106,0.0991,0.0988,0.104,0.104,0.101,0.0928,0.092,0.1,0.0908,0.0906,0.098,0.0962,0.0875,0.0982,0.0902,0.0853,0.0901,0.0933,0.0832,0.0922,0.083,0.0824,0.0975,0.122,0.116,0.119,0.14,0.0969,0.121,0.113,0.0928,0.0873,0.0833,0.085,0.0724,0.0795,0.0864,0.0793,0.0743,0.0833,0.0249,0.0172,0.208,0.53,1,0.925,0.441,0,0.0225,0.0746,0.11,0.123,0.101,0.114,0.109,0.119,0.115,0.132,0.134,0.143,0.124,0.152,0.163,0.166,0.193,0.2,0.218,0.24,0.267,0.307,0.322,0.333,0.35,0.359,0.347,0,0,0,0,0,0,0,0,0,0,0,0,0,0,0,0,0,0,0,0,0,0,0,0,0,0,0,0,0,0,0,0,0,0,0,0,0,0,0,0,0,0,0,0,0,0,0,0,0,0,0,0,0,0,0,0,0,0,0,0
1,0.73,0.583,0.351,0.28,0.321,0.268,0.23,0.219,0.204,0.236,0.207,0.226,0.213,0.21,0.262,0.221,0.218,0.208,0.25,0.244,0.218,0.247,0.202,0.18,0.177,0.153,0.155,0.162,0.177,0.105,0.135,0.116,0.0972,0.0528,0.0157,0.00278,0.0269,0,0.012,0.0361,0.037,0.0833,0.107,0.124,0.153,0.126,0.147,0.173,0.186,0.217,0.17,0.196,0.206,0.181,0.186,0.195,0.2,0.166,0.192,0.196,0.254,0.208,0.213,0.179,0.207,0.201,0.196,0.22,0.23,0.218,0.244,0.253,0.253,0.241,0.257,0.291,0.248,0.287,0.269,0.282,0.264,0.253,0.221,0.247,0.212,0.219,0.249,0.223,0.24,0.271,0.251,0.262,0.268,0.26,0.258,0.245,0.312,0.294,0.292,0.285,0.247,0.302,0.26,0.269,0.284,0.265,0.256,0.266,0.29,0.299,0.356,0.365,0.405,0.481,0.488,0.502,0.494,0.481,0.431,0.448,0.323,0.334,0.324,0.301,0.29,0.294,0.227,0.131,0.155,0.256,0.721,0.791,0.799,0.656,0.455,0.411,0.387,0.316,0.322,0.301,0.322,0.291,0.248,0.269,0.294,0.296,0.292,0.309,0.305,0.277,0.259,0.304,0.279,0.299,0.304,0,0,0,0,0,0,0,0,0,0,0,0,0,0,0,0,0,0,0,0,0,0,0,0,0,0,0,0,0,0,0,1
1,0.619,0.115,0.119,0.125,0.112,0.111,0.0971,0.0923,0.0875,0.0979,0.0934,0.0824,0.0759,0.0897,0.09,0.0739,0.0824,0.0942,0.0982,0.09,0.105,0.113,0.11,0.131,0.14,0.159,0.192,0.218,0.245,0.267,0.289,0.308,0.332,0.341,0.34,0.326,0.284,0.231,0.208,0.165,0.13,0.123,0.102,0.103,0.099,0.0849,0.0968,0.09,0.094,0.102,0.1,0.1,0.102,0.0985,0.1,0.104,0.0988,0.0976,0.1,0.0976,0.103,0.0926,0.0897,0.104,0.113,0.129,0.155,0.176,0.179,0.176,0.135,0.117,0.0965,0.0818,0.0615,0.0601,0.0474,0.055,0.0593,0.044,0.037,0.048,0.0446,0.0378,0,0.152,0.472,0.852,0.992,0.374,0.0618,0.0872,0.0942,0.0787,0.0649,0.0547,0.0519,0.0593,0.0547,0.0593,0.0609,0.0657,0.0556,0.0595,0.0632,0.0641,0.066,0.0711,0.0751,0.0804,0.0959,0.11,0.119,0.14,0.169,0.192,0.221,0.243,0.273,0.298,0.315,0.328,0.319,0.29,0.247,0.207,0.163,0.136,0.106,0.0883,0.0801,0.0767,0.0714,0.0728,0.0708,0.0686,0.0663,0.0672,0.0751,0.077,0.0765,0.0838,0.0858,0,0,0,0,0,0,0,0,0,0,0,0,0,0,0,0,0,0,0,0,0,0,0,0,0,0,0,0,0,0,0,0,0,0,0,0,0,0,0,0,0,0,0,0
1,0.715,0.394,0.18,0,0.169,0.177,0.244,0.231,0.206,0.229,0.205,0.237,0.212,0.208,0.223,0.216,0.249,0.239,0.222,0.251,0.223,0.254,0.228,0.216,0.271,0.237,0.29,0.275,0.273,0.317,0.29,0.356,0.346,0.343,0.381,0.358,0.381,0.36,0.32,0.347,0.307,0.311,0.29,0.259,0.276,0.241,0.275,0.26,0.234,0.25,0.236,0.27,0.258,0.267,0.285,0.266,0.3,0.288,0.262,0.292,0.255,0.292,0.285,0.246,0.284,0.25,0.273,0.264,0.245,0.286,0.245,0.278,0.268,0.25,0.301,0.293,0.356,0.339,0.3,0.396,0.368,0.405,0.37,0.345,0.352,0.295,0.286,0.244,0.21,0.249,0.217,0.247,0.225,0.208,0.24,0.223,0.247,0.418,0.472,0.792,0.975,0.7,0.34,0.0855,0.0742,0.154,0.251,0.223,0.223,0.259,0.235,0.285,0.258,0.242,0.277,0.238,0.289,0.263,0.252,0.277,0,0,0,0,0,0,0,0,0,0,0,0,0,0,0,0,0,0,0,0,0,0,0,0,0,0,0,0,0,0,0,0,0,0,0,0,0,0,0,0,0,0,0,0,0,0,0,0,0,0,0,0,0,0,0,0,0,0,0,0,0,0,0,0,0,0,1
1,0.9,0.359,0.0515,0.0466,0.127,0.133,0.119,0.111,0.113,0.107,0.107,0.116,0.122,0.122,0.12,0.116,0.122,0.126,0.134,0.135,0.143,0.151,0.158,0.164,0.174,0.189,0.208,0.231,0.259,0.295,0.326,0.363,0.398,0.429,0.449,0.451,0.419,0.373,0.31,0.25,0.204,0.169,0.147,0.13,0.124,0.118,0.117,0.116,0.119,0.115,0.114,0.12,0.117,0.123,0.121,0.117,0.123,0.126,0.132,0.142,0.139,0.145,0.143,0.141,0.141,0.138,0.137,0.132,0.128,0.128,0.128,0.125,0.122,0.117,0.113,0.113,0.128,0.165,0.179,0.161,0.177,0.183,0.175,0.152,0.148,0.135,0.123,0.107,0.0981,0.0944,0.0891,0.0891,0.0887,0.0908,0.0859,0.0859,0.0891,0.0843,0.0579,0,0.116,0.31,0.834,0.964,0.562,0.0814,0.0324,0.113,0.152,0.136,0.125,0.124,0.124,0.116,0.115,0.117,0.125,0.128,0.13,0.127,0.13,0.136,0,0,0,0,0,0,0,0,0,0,0,0,0,0,0,0,0,0,0,0,0,0,0,0,0,0,0,0,0,0,0,0,0,0,0,0,0,0,0,0,0,0,0,0,0,0,0,0,0,0,0,0,0,0,0,0,0,0,0,0,0,0,0,0,0
0.955,0.661,0.341,0.215,0.186,0.138,0.157,0.13,0.124,0.125,0.116,0.145,0.128,0.137,0.133,0.126,0.152,0.127,0.128,0.131,0.115,0.135,0.122,0.128,0.14,0.139,0.171,0.168,0.186,0.219,0.227,0.285,0.291,0.305,0.321,0.31,0.329,0.297,0.274,0.26,0.215,0.208,0.174,0.152,0.142,0.118,0.144,0.128,0.127,0.131,0.0957,0.124,0.0968,0.0998,0.111,0.0986,0.116,0.0922,0.0957,0.111,0.113,0.152,0.129,0.129,0.132,0.121,0.134,0.117,0.116,0.124,0.114,0.127,0.109,0.117,0.111,0.102,0.137,0.118,0.116,0.124,0.101,0.13,0.104,0.0992,0.108,0.0916,0.118,0.098,0.108,0.117,0.102,0.121,0.106,0.108,0.128,0.116,0.145,0.123,0.124,0.128,0.104,0.124,0.109,0.124,0.12,0.114,0.15,0.123,0.117,0.12,0.103,0.134,0.118,0.167,0.184,0.178,0.201,0.177,0.215,0.226,0.148,0.137,0.127,0.0869,0.0788,0.0496,0.07,0.0566,0.0683,0.0548,0,0.0321,0.314,0.693,1,0.826,0.418,0.176,0.128,0.0939,0.063,0.0916,0.0642,0.0741,0.0834,0.0735,0.0963,0.0729,0.084,0.0852,0,0,0,0,0,0,0,0,0,0,0,0,0,0,0,0,0,0,0,0,0,0,0,0,0,0,0,0,0,0,0,0,0,0,0,0,0,0
1,0.826,0.267,0.112,0.143,0.0924,0.0595,0.0383,0.0388,0.0433,0.0482,0.0446,0.0433,0.0482,0.0523,0.0464,0.0523,0.0572,0.064,0.0735,0.0807,0.0798,0.087,0.1,0.108,0.113,0.122,0.129,0.14,0.147,0.169,0.188,0.207,0.223,0.236,0.25,0.25,0.249,0.246,0.226,0.202,0.177,0.154,0.126,0.11,0.0906,0.0726,0.0658,0.0586,0.0581,0.0541,0.0577,0.0586,0.0649,0.0653,0.0676,0.0676,0.0708,0.078,0.0748,0.0766,0.0771,0.0838,0.0816,0.0762,0.0771,0.0717,0.064,0.0577,0.0568,0.0541,0.0604,0.055,0.0532,0.0559,0.0478,0.0388,0.037,0.0383,0.046,0.0442,0.0464,0.0487,0.0509,0.046,0.0424,0.0397,0.0342,0.0361,0.0419,0.0442,0.0415,0.0496,0.0419,0.0406,0.0451,0.0455,0.0451,0.046,0.0518,0.0572,0.0892,0.119,0.118,0.115,0.127,0.145,0.123,0.118,0.0757,0.0644,0.0392,0.023,0.023,0.0189,0.0108,0.00631,0.00496,0.00406,0,0.0126,0.0347,0.259,0.749,0.881,0.385,0.104,0.146,0.115,0.0807,0.0595,0.0563,0.0545,0.0446,0.0419,0.0482,0.0496,0.0545,0.0568,0.0613,0.0631,0.0685,0.0744,0.0789,0.082,0.0888,0.0919,0.0964,0.108,0.119,0.128,0,0,0,0,0,0,0,0,0,0,0,0,0,0,0,0,0,0,0,0,0,0,0,0,0,0,0,0,0,0,0,0,0,0,0,0,0
0.964,0.618,0.273,0.13,0.116,0.0616,0.0373,0.026,0.0165,0.0127,0.0101,0.0136,0.00838,0.00318,0.00289,0,0.0052,0.00954,0.0188,0.0246,0.0344,0.0463,0.0581,0.0688,0.0859,0.0948,0.106,0.119,0.136,0.16,0.176,0.184,0.196,0.197,0.193,0.179,0.16,0.136,0.106,0.0859,0.0636,0.0471,0.0385,0.0327,0.0402,0.0399,0.0428,0.0353,0.0309,0.0315,0.0318,0.0298,0.0306,0.0266,0.0272,0.035,0.0411,0.046,0.0463,0.0523,0.0593,0.0578,0.0541,0.0526,0.0497,0.0541,0.0532,0.0517,0.0544,0.0509,0.0541,0.0489,0.0442,0.0439,0.0431,0.0457,0.0402,0.0393,0.0344,0.0361,0.039,0.0425,0.0385,0.0387,0.0463,0.0413,0.0373,0.0434,0.0445,0.0416,0.0422,0.0451,0.0463,0.0419,0.0437,0.0463,0.0445,0.0491,0.0517,0.0546,0.0567,0.0653,0.0914,0.109,0.107,0.101,0.111,0.112,0.0873,0.0752,0.0723,0.0642,0.0731,0.0671,0.0653,0.0596,0.0567,0.0656,0.0731,0.0679,0.0627,0.0448,0.104,0.274,0.412,0.64,1,0.964,0.529,0.341,0.233,0.205,0.169,0.162,0.142,0.13,0.125,0.115,0.113,0.127,0.131,0.135,0.139,0.135,0.133,0.131,0.145,0.151,0.16,0.17,0.182,0.191,0.198,0.219,0.233,0.257,0.276,0.289,0.304,0.308,0,0,0,0,0,0,0,0,0,0,0,0,0,0,0,0,0,0,0,0,0,0,0,0,0,0,0,0
1,0.658,0.383,0.331,0.217,0.109,0.083,0.0433,0.0375,0.0614,0.0383,0.0368,0.078,0.0751,0.0773,0.0708,0.0679,0.0975,0.0931,0.116,0.1,0.123,0.157,0.131,0.168,0.186,0.197,0.223,0.22,0.229,0.232,0.247,0.222,0.237,0.181,0.162,0.136,0.0758,0.057,0.0498,0.0534,0.0715,0.0693,0.0578,0.0982,0.121,0.0946,0.126,0.114,0.114,0.0931,0.109,0.105,0.0924,0.0816,0.0903,0.0708,0.0657,0.0542,0.0679,0.0664,0.0736,0.065,0.0621,0.0708,0.0708,0.0484,0.0549,0.0679,0.0325,0.0722,0.0563,0.0354,0.0332,0.0426,0.031,0.0585,0.0542,0.0195,0.0527,0.083,0.129,0.166,0.139,0.209,0.221,0.19,0.226,0.226,0.178,0.125,0.0794,0.0426,0.0375,0.0282,0.00939,0.0195,0.00433,0.00289,0,0.0238,0.127,0.365,0.628,0.974,0.632,0.363,0.282,0.2,0.133,0.0686,0.0679,0.0592,0.0491,0.0549,0.0542,0.0729,0.0722,0.0736,0.0874,0.0939,0.121,0.134,0.148,0.13,0.149,0,0,0,0,0,0,0,0,0,0,0,0,0,0,0,0,0,0,0,0,0,0,0,0,0,0,0,0,0,0,0,0,0,0,0,0,0,0,0,0,0,0,0,0,0,0,0,0,0,0,0,0,0,0,0,0,0,0,0,0,0,1
1,0.562,0.223,0.0345,0.0409,0.0822,0.0867,0.0764,0.0771,0.0798,0.0792,0.0764,0.0826,0.087,0.0897,0.0901,0.0972,0.101,0.111,0.119,0.13,0.141,0.159,0.178,0.201,0.218,0.246,0.272,0.299,0.323,0.345,0.343,0.321,0.281,0.235,0.19,0.159,0.132,0.117,0.109,0.0976,0.0914,0.0897,0.0901,0.089,0.0877,0.089,0.0887,0.0877,0.0901,0.0935,0.0887,0.0843,0.086,0.0928,0.0914,0.0884,0.0884,0.0884,0.0873,0.0887,0.085,0.0832,0.0884,0.0894,0.0948,0.0928,0.0887,0.0867,0.0914,0.0887,0.0819,0.0819,0.0822,0.0809,0.0812,0.0805,0.0832,0.0792,0.0774,0.0754,0.0792,0.074,0.0761,0.0693,0.0751,0.0716,0.0798,0.0781,0.0761,0.0744,0.073,0.0757,0.0761,0.0788,0.0863,0.1,0.11,0.137,0.142,0.15,0.143,0.141,0.122,0.119,0.0904,0.074,0.0587,0.059,0.0529,0.0515,0.0314,0,0.102,0.366,0.79,0.986,0.5,0.151,0.00921,0.0396,0.0723,0.071,0.0635,0.0645,0.0672,0.0737,0.0716,0.0771,0.0764,0.0819,0.0877,0.0901,0.0972,0.102,0.114,0.124,0.136,0.145,0,0,0,0,0,0,0,0,0,0,0,0,0,0,0,0,0,0,0,0,0,0,0,0,0,0,0,0,0,0,0,0,0,0,0,0,0,0,0,0,0,0,0,0,0,0,0,0,0
1,0.513,0.222,0.0263,0.0573,0.102,0.121,0.11,0.102,0.103,0.105,0.102,0.107,0.107,0.11,0.117,0.125,0.12,0.126,0.129,0.136,0.141,0.148,0.155,0.156,0.166,0.177,0.191,0.2,0.222,0.246,0.268,0.291,0.321,0.344,0.368,0.392,0.405,0.412,0.393,0.368,0.33,0.287,0.242,0.2,0.163,0.141,0.125,0.118,0.108,0.102,0.0992,0.0941,0.0941,0.0907,0.0934,0.0938,0.0976,0.0972,0.102,0.104,0.105,0.1,0.107,0.102,0.093,0.0984,0.0953,0.0984,0.1,0.0938,0.0922,0.0922,0.0891,0.0891,0.0891,0.0899,0.086,0.0868,0.0872,0.0833,0.0818,0.0849,0.0864,0.0833,0.0818,0.0825,0.0829,0.081,0.0821,0.0856,0.0814,0.0814,0.0852,0.0849,0.0845,0.0833,0.0907,0.101,0.122,0.132,0.14,0.151,0.166,0.169,0.155,0.143,0.125,0.102,0.0771,0.069,0.0655,0.0647,0.0628,0.0601,0.0585,0.0581,0.0597,0.0604,0.0674,0.0721,0.0705,0.0748,0.0713,0.0372,0,0.121,0.343,0.667,0.95,0.751,0.333,0.0825,0.0337,0.108,0.134,0.123,0.115,0.111,0.112,0.11,0.112,0.116,0.117,0.12,0.122,0.127,0.13,0.131,0.139,0.147,0.148,0.157,0.163,0.171,0.181,0.189,0.207,0.225,0.241,0.26,0.289,0,0,0,0,0,0,0,0,0,0,0,0,0,0,0,0,0,0,0,0,0,0,0,0,0,0
1,0.664,0.262,0.0982,0.044,0.0521,0.0696,0.0323,0.0689,0.0718,0.0696,0.0755,0.0784,0.0975,0.106,0.12,0.142,0.137,0.149,0.167,0.182,0.21,0.197,0.214,0.247,0.266,0.281,0.289,0.309,0.309,0.312,0.309,0.283,0.291,0.265,0.254,0.238,0.2,0.194,0.184,0.173,0.183,0.158,0.157,0.168,0.163,0.174,0.147,0.161,0.177,0.179,0.191,0.156,0.169,0.169,0.155,0.168,0.145,0.134,0.139,0.116,0.131,0.114,0.121,0.122,0.117,0.128,0.105,0.127,0.111,0.119,0.121,0.0894,0.111,0.114,0.11,0.13,0.104,0.112,0.112,0.0968,0.111,0.114,0.174,0.192,0.223,0.333,0.306,0.32,0.338,0.31,0.207,0.123,0.0858,0.0931,0.0667,0.0902,0.0645,0.0872,0.085,0.0784,0,0.0704,0.358,0.898,0.837,0.456,0.211,0.0997,0.111,0.12,0.13,0.105,0.128,0.111,0.114,0.16,0.139,0.152,0.15,0.15,0.185,0.173,0.194,0,0,0,0,0,0,0,0,0,0,0,0,0,0,0,0,0,0,0,0,0,0,0,0,0,0,0,0,0,0,0,0,0,0,0,0,0,0,0,0,0,0,0,0,0,0,0,0,0,0,0,0,0,0,0,0,0,0,0,0,0,0,0,1
0.947,0.551,0.238,0.0838,0.0654,0.208,0.32,0.358,0.378,0.395,0.411,0.407,0.379,0.408,0.409,0.402,0.391,0.394,0.393,0.38,0.389,0.383,0.376,0.363,0.37,0.389,0.358,0.365,0.337,0.357,0.328,0.311,0.282,0.286,0.227,0.242,0.234,0.233,0.233,0.251,0.266,0.289,0.331,0.341,0.373,0.349,0.384,0.384,0.395,0.418,0.42,0.424,0.449,0.427,0.445,0.429,0.428,0.446,0.429,0.438,0.427,0.429,0.445,0.449,0.445,0.392,0.397,0.395,0.428,0.42,0.407,0.396,0.409,0.425,0.408,0.408,0.416,0.404,0.406,0.404,0.41,0.397,0.391,0.394,0.412,0.397,0.409,0.401,0.409,0.401,0.412,0.406,0.398,0.414,0.435,0.454,0.483,0.508,0.512,0.508,0.521,0.521,0.547,0.549,0.496,0.463,0.429,0.386,0.38,0.398,0.367,0.369,0.368,0.369,0.364,0.347,0.36,0.348,0.29,0.274,0.481,1,0.699,0.326,0.101,0,0.164,0.308,0.345,0.384,0.387,0.404,0.403,0.415,0.397,0.398,0.381,0.398,0.401,0.38,0.372,0.384,0.381,0.379,0.379,0.372,0.352,0.357,0,0,0,0,0,0,0,0,0,0,0,0,0,0,0,0,0,0,0,0,0,0,0,0,0,0,0,0,0,0,0,0,0,0,0,0,0,0,0,1
0.957,0.997,0.492,0.307,0.0587,0.231,0.314,0.363,0.385,0.379,0.375,0.392,0.382,0.391,0.395,0.391,0.399,0.401,0.396,0.411,0.4,0.401,0.406,0.401,0.393,0.391,0.387,0.399,0.403,0.393,0.383,0.401,0.412,0.419,0.428,0.429,0.433,0.439,0.456,0.446,0.446,0.457,0.467,0.487,0.479,0.462,0.467,0.458,0.449,0.432,0.418,0.405,0.407,0.406,0.387,0.392,0.389,0.397,0.4,0.398,0.392,0.407,0.403,0.408,0.403,0.4,0.4,0.4,0.396,0.384,0.383,0.383,0.389,0.382,0.381,0.378,0.385,0.39,0.383,0.383,0.372,0.379,0.372,0.374,0.374,0.377,0.375,0.383,0.379,0.375,0.377,0.373,0.37,0.378,0.391,0.405,0.424,0.451,0.471,0.487,0.553,0.539,0.535,0.525,0.494,0.507,0.445,0.395,0.378,0.347,0.339,0.335,0.337,0.336,0.327,0.334,0.335,0.334,0.517,0.476,0.761,1,0.813,0.341,0.219,0,0.251,0.296,0.342,0.341,0.326,0.34,0.337,0.352,0.35,0.347,0.356,0.355,0.359,0.353,0.351,0.357,0.369,0.367,0.362,0,0,0,0,0,0,0,0,0,0,0,0,0,0,0,0,0,0,0,0,0,0,0,0,0,0,0,0,0,0,0,0,0,0,0,0,0,0,0,0,0,0,1
0.962,0.921,0.542,0.139,0,0.251,0.333,0.392,0.408,0.414,0.425,0.434,0.435,0.447,0.452,0.454,0.455,0.463,0.458,0.466,0.473,0.475,0.477,0.489,0.491,0.49,0.492,0.497,0.505,0.519,0.515,0.517,0.521,0.523,0.53,0.538,0.542,0.542,0.548,0.559,0.577,0.577,0.558,0.539,0.519,0.484,0.475,0.46,0.443,0.427,0.417,0.425,0.418,0.43,0.432,0.44,0.449,0.453,0.452,0.466,0.476,0.469,0.47,0.473,0.464,0.469,0.464,0.463,0.446,0.432,0.434,0.43,0.426,0.405,0.409,0.41,0.425,0.409,0.402,0.409,0.429,0.427,0.423,0.42,0.438,0.426,0.432,0.427,0.42,0.418,0.422,0.425,0.422,0.43,0.423,0.409,0.406,0.416,0.418,0.426,0.429,0.422,0.424,0.428,0.428,0.42,0.423,0.429,0.423,0.415,0.411,0.446,0.484,0.483,0.477,0.464,0.438,0.433,0.433,0.426,0.418,0.4,0.417,0.393,0.384,0.385,0.382,0.392,0.39,0.389,0.39,0.39,0.399,0.373,0.365,0.527,0.854,1,0.929,0.366,0.022,0.122,0.291,0.369,0.436,0.459,0.461,0.472,0.475,0.484,0.49,0.484,0.494,0.496,0.494,0.495,0.503,0.507,0.506,0.511,0.518,0.516,0.514,0.525,0.535,0,0,0,0,0,0,0,0,0,0,0,0,0,0,0,0,0,0,0,0,0,0,0
0.947,0.678,0.396,0.153,0,0.0388,0.109,0.107,0.114,0.11,0.114,0.112,0.11,0.122,0.123,0.118,0.128,0.129,0.138,0.141,0.148,0.158,0.162,0.177,0.185,0.203,0.217,0.225,0.236,0.247,0.25,0.255,0.251,0.248,0.227,0.206,0.185,0.161,0.147,0.125,0.118,0.111,0.106,0.11,0.111,0.106,0.108,0.108,0.115,0.109,0.114,0.116,0.115,0.118,0.113,0.115,0.113,0.103,0.11,0.103,0.104,0.105,0.101,0.104,0.0961,0.0991,0.0983,0.0932,0.0932,0.0906,0.0913,0.0932,0.0865,0.0909,0.088,0.085,0.0898,0.0821,0.0872,0.0858,0.0932,0.0909,0.0835,0.0921,0.115,0.127,0.125,0.109,0.106,0.101,0.0909,0.0939,0.0865,0.0787,0.0595,0.0628,0.0647,0.0621,0.0665,0.0684,0.0702,0.0773,0.078,0.0817,0.0669,0.0891,0.233,0.667,1,0.519,0.304,0.0617,0.0107,0.0702,0.128,0.12,0.12,0.121,0.123,0.125,0.129,0.128,0.13,0.132,0.129,0.14,0.148,0.15,0.161,0.166,0.177,0.189,0.199,0,0,0,0,0,0,0,0,0,0,0,0,0,0,0,0,0,0,0,0,0,0,0,0,0,0,0,0,0,0,0,0,0,0,0,0,0,0,0,0,0,0,0,0,0,0,0,0,0,0,0,0,0,0,0
0.905,0.903,0.775,0.781,0.492,0.148,0.0772,0,0.0273,0.152,0.174,0.163,0.169,0.168,0.168,0.176,0.164,0.168,0.154,0.162,0.157,0.147,0.146,0.151,0.159,0.15,0.138,0.129,0.131,0.122,0.12,0.119,0.121,0.0879,0.0939,0.102,0.0999,0.112,0.116,0.133,0.14,0.152,0.175,0.183,0.188,0.211,0.226,0.242,0.246,0.242,0.256,0.239,0.238,0.246,0.253,0.238,0.238,0.243,0.262,0.25,0.242,0.237,0.234,0.229,0.229,0.228,0.242,0.236,0.245,0.242,0.239,0.258,0.242,0.228,0.245,0.255,0.252,0.264,0.266,0.278,0.3,0.286,0.272,0.292,0.328,0.27,0.295,0.283,0.294,0.27,0.245,0.232,0.23,0.241,0.255,0.255,0.256,0.277,0.342,0.547,0.738,0.836,1,0.952,0.829,0.768,0.533,0.252,0.176,0.0979,0.205,0.293,0.288,0.272,0.282,0.305,0.292,0.291,0.308,0.302,0.281,0.278,0,0,0,0,0,0,0,0,0,0,0,0,0,0,0,0,0,0,0,0,0,0,0,0,0,0,0,0,0,0,0,0,0,0,0,0,0,0,0,0,0,0,0,0,0,0,0,0,0,0,0,0,0,0,0,0,0,0,0,0,0,0,0,0,0,1
0.999,1,0.964,0.957,0.899,0.854,0.828,0.808,0.806,0.755,0.727,0.731,0.708,0.723,0.678,0.707,0.707,0.745,0.766,0.784,0.81,0.773,0.737,0.763,0.736,0.755,0.764,0.741,0.674,0.59,0.618,0.606,0.554,0.671,0.646,0.594,0.566,0.662,0.687,0.672,0.681,0.681,0.643,0.638,0.618,0.628,0.622,0.576,0.56,0.497,0.47,0.584,0.45,0.284,0.312,0.119,0,0.333,0.634,0.705,0.755,0.716,0.643,0.684,0.693,0.688,0.659,0.687,0.69,0.666,0.704,0.728,0.727,0.763,0.785,0.831,0.857,0.851,0.896,0.931,0.954,0.941,0.934,0.964,0.919,0.866,0.832,0.784,0.827,0.794,0.766,0.665,0.624,0.66,0.649,0.687,0.696,0.608,0.619,0.668,0.673,0.691,0.702,0.725,0.699,0.701,0.716,0.698,0.72,0.737,0.731,0.746,0.72,0.769,0.781,0.778,0.749,0.662,0.66,0.633,0.769,0.719,0.428,0.463,0.375,0.1,0.339,0.669,0.745,0.796,0.749,0.707,0.678,0.693,0.695,0.703,0.722,0.709,0.735,0.745,0.752,0.788,0.779,0.84,0.86,0.867,0.891,0.886,0.933,0.95,0.965,0.984,0.954,0.946,0.913,0.861,0.837,0.782,0.777,0,0,0,0,0,0,0,0,0,0,0,0,0,0,0,0,0,0,0,0,0,0,0,0,0,0,0,0,1
0.813,0.401,0.0896,0.0345,0,0.0383,0.0569,0.0731,0.0838,0.0758,0.0845,0.0872,0.0793,0.11,0.111,0.1,0.103,0.117,0.124,0.125,0.145,0.158,0.165,0.175,0.208,0.219,0.227,0.256,0.266,0.295,0.296,0.297,0.322,0.322,0.314,0.297,0.28,0.241,0.222,0.187,0.174,0.168,0.169,0.164,0.145,0.151,0.14,0.151,0.155,0.15,0.158,0.153,0.18,0.176,0.183,0.186,0.176,0.195,0.208,0.205,0.209,0.198,0.202,0.204,0.207,0.2,0.2,0.2,0.202,0.209,0.206,0.204,0.203,0.206,0.202,0.208,0.198,0.214,0.218,0.221,0.225,0.236,0.231,0.27,0.289,0.284,0.273,0.3,0.28,0.29,0.271,0.272,0.252,0.235,0.202,0.218,0.217,0.214,0.227,0.228,0.217,0.221,0.229,0.234,0.235,0.248,0.406,0.528,0.807,1,0.726,0.349,0.241,0.194,0.219,0.239,0.256,0.261,0.264,0.268,0.268,0.271,0.275,0.279,0.275,0.277,0.281,0.299,0.304,0.302,0.316,0.317,0.332,0.342,0,0,0,0,0,0,0,0,0,0,0,0,0,0,0,0,0,0,0,0,0,0,0,0,0,0,0,0,0,0,0,0,0,0,0,0,0,0,0,0,0,0,0,0,0,0,0,0,0,0,0,0,0,1
1,0.818,0.488,0.44,0.393,0.364,0.278,0.298,0.25,0.234,0.312,0.26,0.257,0.288,0.253,0.293,0.285,0.242,0.268,0.265,0.297,0.298,0.27,0.273,0.246,0.319,0.277,0.291,0.245,0.244,0.251,0.302,0.243,0.238,0.209,0.206,0.234,0.24,0.215,0.255,0.284,0.259,0.27,0.232,0.28,0.312,0.297,0.264,0.248,0.28,0.252,0.246,0.279,0.22,0.216,0.282,0.252,0.247,0.218,0.255,0.25,0.234,0.227,0.218,0.251,0.274,0.246,0.262,0.268,0.224,0.271,0.22,0.254,0.234,0.253,0.247,0.243,0.248,0.258,0.271,0.275,0.259,0.278,0.27,0.258,0.287,0.258,0.302,0.296,0.307,0.37,0.329,0.395,0.333,0.342,0.358,0.271,0.281,0.24,0.27,0.272,0.224,0.251,0.222,0.268,0.244,0.0491,0,0.419,0.953,0.933,0.485,0.456,0.446,0.375,0.326,0.245,0.275,0.255,0.296,0.313,0.274,0.279,0.305,0.319,0.332,0.262,0.296,0.3,0.312,0,0,0,0,0,0,0,0,0,0,0,0,0,0,0,0,0,0,0,0,0,0,0,0,0,0,0,0,0,0,0,0,0,0,0,0,0,0,0,0,0,0,0,0,0,0,0,0,0,0,0,0,0,0,0,0,0,1
0.971,0.505,0.0529,0.00373,0.0709,0.154,0.172,0.158,0.187,0.194,0.186,0.214,0.203,0.192,0.218,0.208,0.227,0.212,0.233,0.244,0.254,0.277,0.263,0.286,0.314,0.36,0.363,0.409,0.415,0.445,0.46,0.475,0.479,0.457,0.439,0.395,0.348,0.347,0.296,0.274,0.278,0.242,0.241,0.25,0.227,0.233,0.253,0.246,0.226,0.24,0.251,0.258,0.257,0.249,0.256,0.251,0.259,0.258,0.248,0.22,0.245,0.228,0.235,0.236,0.243,0.238,0.216,0.217,0.244,0.253,0.291,0.321,0.398,0.335,0.315,0.335,0.327,0.311,0.287,0.259,0.216,0.194,0.196,0.162,0.178,0.167,0.167,0.174,0.17,0.167,0.114,0.123,0.266,0.541,0.712,1,0.38,0,0.00187,0.101,0.135,0.152,0.172,0.177,0.178,0.188,0.19,0.175,0.19,0.182,0.21,0.21,0.23,0.231,0.239,0.245,0.273,0,0,0,0,0,0,0,0,0,0,0,0,0,0,0,0,0,0,0,0,0,0,0,0,0,0,0,0,0,0,0,0,0,0,0,0,0,0,0,0,0,0,0,0,0,0,0,0,0,0,0,0,0,0,0,0,0,0,0,0,0,0,0,0,0,0,0,0,0,0,0
0.968,0.748,0.441,0.28,0.188,0.109,0.0662,0.0585,0.0423,0.0261,0.0221,0.0202,0.0217,0.0276,0.0302,0.0305,0.0309,0.0305,0.0438,0.0618,0.0673,0.0798,0.0894,0.108,0.12,0.142,0.153,0.179,0.212,0.241,0.275,0.298,0.311,0.339,0.349,0.345,0.323,0.295,0.266,0.22,0.181,0.142,0.114,0.0978,0.0908,0.0644,0.0629,0.0537,0.0522,0.0493,0.0445,0.0416,0.0427,0.0515,0.0445,0.0434,0.05,0.0474,0.0511,0.0504,0.057,0.0566,0.0533,0.0592,0.0618,0.0618,0.0559,0.0537,0.0526,0.0397,0.0452,0.0331,0.0371,0.036,0.039,0.039,0.0349,0.0379,0.032,0.0294,0.0371,0.0331,0.0305,0.0261,0.0298,0.0368,0.0316,0.0338,0.0294,0.0342,0.036,0.0302,0.0441,0.0592,0.0739,0.0879,0.0842,0.103,0.126,0.139,0.122,0.113,0.113,0.0702,0.0368,0.0195,0.0118,0.014,0.0118,0.00662,0.00405,0.00478,0.0114,0.0103,0,0.064,0.202,0.492,0.903,1,0.629,0.341,0.268,0.181,0.115,0.104,0.089,0.0809,0.0633,0.0548,0.0614,0.0588,0.0633,0.0677,0.0644,0.0776,0.085,0.0897,0.102,0.114,0.122,0.132,0.15,0.173,0,0,0,0,0,0,0,0,0,0,0,0,0,0,0,0,0,0,0,0,0,0,0,0,0,0,0,0,0,0,0,0,0,0,0,0,0,0,0,0,0,0,0,1
1,0.229,0,0.17,0.158,0.388,0.523,0.537,0.571,0.573,0.591,0.597,0.595,0.632,0.615,0.629,0.636,0.64,0.666,0.649,0.663,0.664,0.649,0.673,0.646,0.652,0.643,0.613,0.603,0.539,0.518,0.46,0.399,0.371,0.32,0.332,0.362,0.388,0.438,0.447,0.485,0.493,0.487,0.523,0.502,0.533,0.526,0.528,0.548,0.533,0.567,0.55,0.555,0.57,0.559,0.584,0.572,0.575,0.596,0.568,0.585,0.583,0.566,0.595,0.56,0.587,0.574,0.552,0.578,0.549,0.574,0.559,0.548,0.564,0.534,0.549,0.54,0.536,0.568,0.535,0.564,0.557,0.56,0.565,0.534,0.552,0.525,0.546,0.574,0.532,0.552,0.536,0.533,0.558,0.536,0.56,0.591,0.625,0.69,0.646,0.715,0.749,0.768,0.743,0.693,0.696,0.623,0.563,0.537,0.491,0.509,0.486,0.502,0.513,0.502,0.547,0.199,0.0783,0.712,0.95,0.233,0.0783,0.218,0.229,0.404,0.567,0.579,0.598,0.617,0.597,0.625,0.623,0.627,0.64,0.62,0.643,0.639,0.637,0.67,0.654,0.677,0,0,0,0,0,0,0,0,0,0,0,0,0,0,0,0,0,0,0,0,0,0,0,0,0,0,0,0,0,0,0,0,0,0,0,0,0,0,0,0,0,0,0,0,0,0,1
1,0.535,0.308,0.218,0.317,0.259,0.178,0.159,0.151,0.149,0.138,0.129,0.15,0.141,0.153,0.162,0.167,0.188,0.191,0.211,0.223,0.226,0.265,0.286,0.322,0.356,0.38,0.443,0.476,0.512,0.531,0.538,0.559,0.524,0.47,0.398,0.317,0.286,0.234,0.209,0.178,0.154,0.159,0.147,0.148,0.144,0.129,0.146,0.147,0.149,0.142,0.142,0.16,0.157,0.16,0.153,0.147,0.159,0.154,0.151,0.147,0.136,0.151,0.144,0.139,0.133,0.124,0.13,0.13,0.127,0.129,0.12,0.136,0.131,0.132,0.127,0.121,0.131,0.123,0.134,0.129,0.117,0.126,0.119,0.123,0.12,0.106,0.116,0.123,0.125,0.118,0.112,0.123,0.118,0.122,0.12,0.149,0.198,0.224,0.228,0.247,0.304,0.316,0.348,0.288,0.23,0.202,0.145,0.0922,0.0847,0.0723,0.0551,0.184,0.0654,0.0674,0.064,0.0544,0.0736,0.0702,0.0702,0,0.044,0.269,0.513,0.812,0.996,0.565,0.359,0.233,0.301,0.268,0.179,0.167,0.131,0.136,0.122,0.127,0.137,0.141,0.155,0.15,0.156,0.179,0.184,0.199,0.21,0.223,0.253,0.284,0.312,0,0,0,0,0,0,0,0,0,0,0,0,0,0,0,0,0,0,0,0,0,0,0,0,0,0,0,0,0,0,0,0,0,0,0,0,0,1
0.993,0.856,0.564,0.389,0.102,0,0.052,0.128,0.279,0.436,0.529,0.563,0.581,0.584,0.587,0.593,0.59,0.594,0.593,0.601,0.598,0.597,0.606,0.602,0.602,0.601,0.602,0.602,0.598,0.607,0.601,0.597,0.594,0.594,0.601,0.601,0.595,0.593,0.591,0.592,0.591,0.591,0.595,0.592,0.603,0.595,0.599,0.594,0.6,0.597,0.598,0.597,0.592,0.592,0.593,0.594,0.584,0.587,0.587,0.583,0.584,0.589,0.583,0.589,0.596,0.587,0.593,0.583,0.575,0.585,0.588,0.581,0.585,0.588,0.598,0.578,0.587,0.584,0.589,0.594,0.591,0.585,0.58,0.587,0.586,0.585,0.585,0.586,0.594,0.587,0.579,0.588,0.586,0.584,0.586,0.585,0.58,0.592,0.58,0.58,0.582,0.577,0.581,0.585,0.587,0.588,0.592,0.585,0.589,0.589,0.593,0.59,0.608,0.626,0.628,0.657,0.647,0.625,0.632,0.605,0.609,0.616,0.61,0.585,0.566,0.554,0.565,0.564,0.558,0.557,0.561,0.561,0.556,0.565,0.561,0.561,0.561,0.577,0.586,0.658,0.678,0.808,1,0.856,0.571,0.413,0.0988,0.0362,0.0843,0.146,0.283,0.445,0.516,0.551,0.561,0.562,0.572,0.573,0.569,0.573,0.574,0.584,0.583,0.576,0.582,0.583,0.578,0.588,0.584,0.585,0.578,0,0,0,0,0,0,0,0,0,0,0,0,0,0,0,0,1
0.952,0.661,0.403,0.065,0.00388,0.107,0.105,0.0892,0.0897,0.0917,0.108,0.103,0.105,0.111,0.108,0.123,0.12,0.129,0.13,0.129,0.153,0.161,0.168,0.183,0.193,0.213,0.214,0.224,0.25,0.253,0.276,0.286,0.283,0.298,0.277,0.263,0.227,0.19,0.166,0.133,0.122,0.0994,0.0795,0.0781,0.0761,0.0839,0.0766,0.0718,0.082,0.0757,0.107,0.0917,0.0854,0.0907,0.0907,0.0912,0.0844,0.0786,0.0815,0.0718,0.0839,0.065,0.065,0.0601,0.0533,0.0626,0.0485,0.0456,0.0533,0.0495,0.0524,0.0519,0.048,0.0514,0.0558,0.065,0.0824,0.132,0.17,0.168,0.219,0.207,0.162,0.141,0.1,0.0781,0.0422,0.0194,0.0223,0.0097,0.0136,0.00582,0.00533,0.016,0.0204,0.0407,0.017,0,0.104,0.292,0.708,1,0.632,0.439,0.149,0.0344,0.102,0.102,0.113,0.111,0.112,0.108,0.106,0.127,0.12,0.135,0.129,0.136,0.143,0.149,0.161,0.159,0.166,0.19,0.194,0.214,0.226,0.237,0.247,0.262,0.28,0.281,0.284,0.302,0.309,0.298,0.272,0.24,0.217,0.185,0.163,0.132,0.116,0.115,0.11,0.113,0.0946,0.102,0.11,0.113,0.126,0.109,0.108,0.122,0.12,0.122,0.111,0.115,0.116,0.116,0.109,0.1,0.103,0.096,0.0878,0.0936,0.0868,0.079,0.0834,0.0766,0.0737,0.0597,0.0645,0.0645,0.0626,0.0655,0.0563,0.0684,0.113,0.161,0.181,0.178,0.236,0,0,0,0,0
1,0.586,0.191,0,0.102,0.0925,0.0567,0.0767,0.0272,0.0539,0.0324,0.0272,0.0467,0.00763,0.0539,0.0267,0.0153,0.0391,0.0081,0.0291,0.0205,0.0486,0.0949,0.0829,0.143,0.149,0.173,0.229,0.181,0.226,0.204,0.205,0.218,0.162,0.195,0.162,0.173,0.195,0.152,0.195,0.178,0.152,0.186,0.167,0.246,0.236,0.241,0.265,0.22,0.302,0.274,0.19,0.191,0.135,0.136,0.105,0.102,0.131,0.0949,0.131,0.109,0.0677,0.0486,0.225,0.579,0.998,0.667,0.244,0.0248,0.156,0.138,0.122,0.131,0.0782,0.111,0.0682,0.0567,0.0887,0.0491,0.0944,0.0815,0.0534,0.0872,0.0472,0.0958,0.0858,0.0972,0.134,0.117,0.192,0.197,0.223,0.263,0.23,0.27,0.247,0.23,0.254,0.199,0.234,0.207,0.197,0.223,0.181,0.229,0.176,0.186,0.215,0.183,0.252,0.246,0.255,0.28,0.241,0.314,0.299,0.227,0.237,0.153,0,0,0,0,0,0,0,0,0,0,0,0,0,0,0,0,0,0,0,0,0,0,0,0,0,0,0,0,0,0,0,0,0,0,0,0,0,0,0,0,0,0,0,0,0,0,0,0,0,0,0,0,0,0,0,0,0,0,0,0,0,0,0,0,0,0,0,0,1
0.917,0.711,0.35,0.00705,0.00705,0.0906,0.0876,0.103,0.117,0.0725,0.124,0.0866,0.105,0.11,0.0997,0.134,0.104,0.144,0.139,0.148,0.169,0.155,0.223,0.241,0.25,0.315,0.298,0.348,0.39,0.407,0.51,0.484,0.513,0.561,0.522,0.544,0.487,0.438,0.37,0.304,0.34,0.288,0.302,0.258,0.264,0.293,0.282,0.266,0.265,0.212,0.281,0.239,0.264,0.248,0.24,0.266,0.22,0.262,0.239,0.211,0.224,0.196,0.24,0.218,0.185,0.239,0.192,0.217,0.193,0.193,0.193,0.192,0.224,0.206,0.181,0.209,0.189,0.199,0.216,0.176,0.224,0.172,0.194,0.187,0.162,0.248,0.18,0.204,0.164,0.196,0.227,0.177,0.224,0.231,0.181,0.219,0.195,0.343,0.355,0.332,0.343,0.401,0.463,0.465,0.526,0.423,0.283,0.26,0.172,0.138,0.119,0.125,0.135,0.0977,0.131,0.246,0.375,1,0.906,0.706,0.253,0,0.0947,0.145,0.0947,0.102,0.115,0.111,0.0926,0.0685,0.0876,0.0806,0.109,0.12,0.0866,0.142,0.111,0.145,0.17,0.151,0,0,0,0,0,0,0,0,0,0,0,0,0,0,0,0,0,0,0,0,0,0,0,0,0,0,0,0,0,0,0,0,0,0,0,0,0,0,0,0,0,0,0,0,0,0,0,1
0.945,0.7,0.226,0.0891,0.00763,0.0566,0.0846,0.0744,0.0687,0.0884,0.0897,0.0922,0.0872,0.0859,0.102,0.101,0.111,0.127,0.124,0.115,0.134,0.148,0.175,0.191,0.237,0.251,0.276,0.31,0.336,0.396,0.439,0.45,0.482,0.484,0.449,0.409,0.359,0.32,0.264,0.234,0.202,0.169,0.174,0.136,0.133,0.13,0.128,0.136,0.119,0.124,0.118,0.0999,0.113,0.0897,0.113,0.0986,0.122,0.113,0.115,0.106,0.109,0.0903,0.133,0.123,0.12,0.114,0.111,0.104,0.109,0.118,0.112,0.129,0.114,0.13,0.122,0.102,0.104,0.114,0.119,0.104,0.118,0.105,0.142,0.11,0.123,0.13,0.139,0.195,0.219,0.224,0.225,0.267,0.273,0.247,0.224,0.233,0.165,0.12,0.108,0.091,0.0948,0.102,0.101,0.105,0.115,0.139,0.133,0,0.0865,0.654,1,0.802,0.319,0.149,0.0821,0.101,0.132,0.123,0.131,0.128,0.126,0.135,0.14,0.142,0.142,0.128,0.153,0.161,0.169,0.17,0.175,0.197,0,0,0,0,0,0,0,0,0,0,0,0,0,0,0,0,0,0,0,0,0,0,0,0,0,0,0,0,0,0,0,0,0,0,0,0,0,0,0,0,0,0,0,0,0,0,0,0,0,0,0,0,0,0,0,0
1,0.706,0.323,0.102,0.0137,0.223,0.286,0.296,0.325,0.351,0.361,0.37,0.369,0.374,0.384,0.383,0.382,0.394,0.405,0.418,0.433,0.452,0.472,0.499,0.54,0.581,0.621,0.646,0.681,0.697,0.704,0.689,0.658,0.591,0.518,0.462,0.409,0.372,0.345,0.333,0.323,0.319,0.312,0.318,0.314,0.311,0.316,0.319,0.319,0.31,0.313,0.319,0.321,0.324,0.326,0.323,0.321,0.314,0.325,0.322,0.316,0.314,0.317,0.301,0.295,0.298,0.305,0.297,0.296,0.296,0.29,0.283,0.3,0.291,0.291,0.285,0.279,0.286,0.281,0.287,0.277,0.279,0.277,0.283,0.283,0.273,0.278,0.296,0.294,0.309,0.315,0.295,0.289,0.275,0.277,0.273,0.27,0.255,0.232,0.238,0.243,0.252,0.253,0.256,0.246,0.253,0.354,0.415,0.523,0.898,0.927,0.438,0.215,0,0.0274,0.218,0.25,0.261,0.276,0.304,0.297,0.304,0.295,0.316,0.319,0.311,0.324,0.343,0.344,0.356,0.364,0.381,0,0,0,0,0,0,0,0,0,0,0,0,0,0,0,0,0,0,0,0,0,0,0,0,0,0,0,0,0,0,0,0,0,0,0,0,0,0,0,0,0,0,0,0,0,0,0,0,0,0,0,0,0,0,0,0
1,0.713,0.494,0.388,0.215,0.19,0.144,0.152,0.205,0.135,0.163,0.169,0.199,0.25,0.18,0.228,0.25,0.264,0.314,0.257,0.312,0.327,0.361,0.419,0.426,0.477,0.527,0.57,0.673,0.649,0.687,0.678,0.655,0.686,0.586,0.514,0.451,0.375,0.361,0.27,0.264,0.247,0.235,0.274,0.188,0.2,0.195,0.184,0.227,0.171,0.18,0.179,0.162,0.21,0.136,0.144,0.136,0.158,0.177,0.134,0.129,0.134,0.136,0.167,0.106,0.149,0.115,0.125,0.159,0.115,0.121,0.119,0.131,0.166,0.0907,0.117,0.0985,0.105,0.146,0.101,0.112,0.107,0.114,0.175,0.155,0.213,0.265,0.279,0.34,0.277,0.355,0.36,0.277,0.277,0.158,0.0962,0.0741,0.0597,0.0896,0.0487,0.0619,0.0398,0.0343,0.094,0,0.108,0.124,0.165,0.423,0.907,0.95,0.636,0.345,0.247,0.128,0.113,0.0741,0.0608,0.104,0.0564,0.094,0.0741,0.105,0.134,0.0885,0.131,0.133,0.136,0.186,0,0,0,0,0,0,0,0,0,0,0,0,0,0,0,0,0,0,0,0,0,0,0,0,0,0,0,0,0,0,0,0,0,0,0,0,0,0,0,0,0,0,0,0,0,0,0,0,0,0,0,0,0,0,0,0,0,0,1
0.9,0.79,0.398,0.222,0.143,0.121,0.0851,0.0708,0.0619,0.0622,0.0638,0.0602,0.0585,0.0599,0.0627,0.0647,0.0658,0.07,0.0697,0.0717,0.0714,0.072,0.0756,0.0773,0.0815,0.0961,0.118,0.139,0.158,0.171,0.191,0.208,0.214,0.225,0.225,0.22,0.2,0.171,0.144,0.118,0.0958,0.0731,0.0619,0.054,0.0445,0.0375,0.0364,0.0372,0.0445,0.0493,0.049,0.0434,0.0392,0.0386,0.035,0.0406,0.0431,0.0428,0.0347,0.0336,0.0384,0.0386,0.0403,0.0314,0.0339,0.0347,0.0319,0.0358,0.0364,0.0353,0.0372,0.0339,0.0302,0.0291,0.0291,0.0294,0.0288,0.0221,0.0216,0.0176,0.0227,0.016,0.019,0.014,0.014,0.0137,0.0151,0.0101,0.0123,0.0123,0.0162,0.0185,0.0221,0.0171,0.0154,0.0196,0.0171,0.0137,0.0101,0.0157,0.014,0.0204,0.0389,0.0546,0.0596,0.0524,0.0644,0.0686,0.063,0.0392,0.0364,0.0288,0.0249,0.03,0.0255,0.0216,0.0238,0.0241,0.0258,0.0286,0.0227,0.0014,0,0.128,0.259,0.411,0.718,1,0.682,0.345,0.216,0.191,0.149,0.122,0.105,0.0877,0.0756,0.07,0.0666,0.0616,0.0686,0.0697,0.0686,0.0703,0.0736,0.0804,0.0809,0.0891,0.098,0.105,0.116,0,0,0,0,0,0,0,0,0,0,0,0,0,0,0,0,0,0,0,0,0,0,0,0,0,0,0,0,0,0,0,0,0,0,0,0,0
1,0.762,0.35,0.227,0.0873,0.0961,0.134,0.139,0.137,0.142,0.147,0.134,0.141,0.145,0.144,0.155,0.146,0.147,0.141,0.151,0.152,0.149,0.158,0.151,0.139,0.15,0.132,0.136,0.13,0.129,0.108,0.0923,0.0902,0.0733,0.0724,0.0856,0.0902,0.102,0.116,0.127,0.159,0.152,0.155,0.182,0.165,0.172,0.16,0.169,0.18,0.16,0.156,0.158,0.166,0.161,0.157,0.161,0.168,0.161,0.169,0.161,0.166,0.152,0.154,0.152,0.151,0.165,0.147,0.158,0.148,0.144,0.157,0.149,0.15,0.134,0.146,0.149,0.137,0.13,0.152,0.144,0.15,0.139,0.139,0.146,0.155,0.148,0.142,0.15,0.134,0.144,0.161,0.166,0.197,0.218,0.214,0.231,0.239,0.291,0.254,0.247,0.229,0.164,0.134,0.122,0.118,0.125,0.104,0.109,0.11,0.0491,0.0165,0.0606,0.453,0.914,0.923,0.411,0.135,0.044,0,0.0796,0.0894,0.0834,0,0,0,0,0,0,0,0,0,0,0,0,0,0,0,0,0,0,0,0,0,0,0,0,0,0,0,0,0,0,0,0,0,0,0,0,0,0,0,0,0,0,0,0,0,0,0,0,0,0,0,0,0,0,0,0,0,0,0,0,0,0,0,0,0,1
1,0.483,0.127,0.0233,0.0903,0.219,0.23,0.253,0.277,0.298,0.306,0.3,0.309,0.319,0.32,0.325,0.318,0.324,0.328,0.334,0.336,0.338,0.35,0.352,0.357,0.368,0.393,0.397,0.408,0.429,0.473,0.483,0.514,0.533,0.554,0.571,0.573,0.59,0.57,0.551,0.507,0.456,0.414,0.382,0.359,0.329,0.311,0.296,0.286,0.297,0.294,0.298,0.311,0.299,0.296,0.298,0.302,0.312,0.311,0.31,0.307,0.302,0.298,0.3,0.29,0.297,0.282,0.281,0.264,0.268,0.27,0.263,0.264,0.265,0.269,0.272,0.264,0.265,0.274,0.276,0.275,0.264,0.264,0.268,0.265,0.267,0.254,0.252,0.25,0.244,0.243,0.25,0.253,0.26,0.263,0.271,0.276,0.288,0.308,0.316,0.334,0.328,0.356,0.316,0.275,0.252,0.237,0.221,0.209,0.223,0.227,0.22,0.225,0.227,0.237,0.232,0.227,0.221,0.203,0.224,0.303,0.339,0.661,0.966,0.487,0.117,0,0.0563,0.179,0.196,0.222,0.23,0.244,0.247,0.256,0.268,0.269,0.274,0.27,0.274,0.299,0.287,0.288,0.286,0.308,0.3,0,0,0,0,0,0,0,0,0,0,0,0,0,0,0,0,0,0,0,0,0,0,0,0,0,0,0,0,0,0,0,0,0,0,0,0,0,0,0,0,0,0
0.999,0.739,0.281,0.0888,0.0807,0.0484,0.0386,0.0323,0.0156,0.0185,0.0363,0.0231,0.0225,0.0352,0.0323,0.0386,0.0548,0.0467,0.0559,0.0802,0.0611,0.0675,0.101,0.129,0.125,0.119,0.152,0.186,0.193,0.223,0.244,0.255,0.272,0.298,0.299,0.277,0.254,0.221,0.174,0.148,0.123,0.11,0.0998,0.0854,0.0836,0.0721,0.0865,0.11,0.0905,0.0923,0.0871,0.0854,0.11,0.116,0.103,0.104,0.114,0.125,0.115,0.101,0.107,0.107,0.0992,0.1,0.0911,0.0802,0.0813,0.0819,0.083,0.0871,0.0928,0.0928,0.0928,0.098,0.0888,0.0871,0.119,0.139,0.163,0.176,0.197,0.214,0.223,0.253,0.257,0.192,0.13,0.0917,0.0715,0.0594,0.0519,0.0484,0.0467,0.0415,0.0427,0.0502,0.0525,0.0427,0.0323,0,0.034,0.162,0.57,1,0.783,0.359,0.142,0.114,0.09,0.0888,0.0836,0.079,0.0738,0.0721,0.0773,0.083,0.0923,0.0882,0.09,0.0911,0.107,0.116,0.118,0.119,0,0,0,0,0,0,0,0,0,0,0,0,0,0,0,0,0,0,0,0,0,0,0,0,0,0,0,0,0,0,0,0,0,0,0,0,0,0,0,0,0,0,0,0,0,0,0,0,0,0,0,0,0,0,0,0,0,0,0,0,0,0,0,0
1,0.615,0.188,0.0703,0.0402,0.0594,0.1,0.12,0.12,0.123,0.127,0.13,0.135,0.137,0.139,0.139,0.14,0.139,0.158,0.147,0.165,0.182,0.189,0.208,0.215,0.236,0.258,0.274,0.289,0.299,0.314,0.318,0.338,0.335,0.327,0.3,0.272,0.238,0.199,0.161,0.149,0.138,0.119,0.102,0.0968,0.0827,0.0847,0.0767,0.0639,0.0811,0.0755,0.0751,0.0783,0.0904,0.0859,0.0815,0.0783,0.0767,0.0908,0.0928,0.0727,0.0835,0.0759,0.0723,0.0803,0.0719,0.0663,0.0735,0.059,0.0635,0.0606,0.0655,0.0655,0.0639,0.0651,0.047,0.0478,0.0639,0.059,0.0598,0.051,0.0502,0.0635,0.0751,0.109,0.121,0.124,0.14,0.137,0.116,0.107,0.0936,0.0928,0.0647,0.0394,0.0269,0.0325,0.0329,0.0382,0.0361,0.0341,0.0378,0.0337,0.0426,0.0394,0.0414,0.057,0.226,0.382,0.695,0.929,0.711,0.284,0.0586,0,0.0418,0.0602,0.0775,0.0924,0.0968,0.092,0.101,0.106,0.119,0.12,0.125,0.133,0.134,0.149,0.156,0,0,0,0,0,0,0,0,0,0,0,0,0,0,0,0,0,0,0,0,0,0,0,0,0,0,0,0,0,0,0,0,0,0,0,0,0,0,0,0,0,0,0,0,0,0,0,0,0,0,0,0,0,0,0,0,0,1
1,0.882,0.433,0.234,0.0766,0.0905,0.172,0.195,0.2,0.206,0.204,0.207,0.194,0.195,0.201,0.213,0.224,0.228,0.236,0.247,0.256,0.261,0.272,0.274,0.27,0.278,0.295,0.307,0.326,0.351,0.367,0.388,0.402,0.416,0.402,0.403,0.393,0.366,0.339,0.315,0.281,0.259,0.239,0.222,0.221,0.218,0.212,0.218,0.214,0.217,0.218,0.22,0.215,0.208,0.211,0.215,0.214,0.211,0.211,0.217,0.215,0.213,0.208,0.206,0.202,0.197,0.199,0.202,0.204,0.193,0.179,0.173,0.169,0.163,0.157,0.16,0.155,0.153,0.155,0.155,0.156,0.16,0.145,0.143,0.148,0.159,0.159,0.158,0.163,0.171,0.17,0.172,0.175,0.172,0.168,0.162,0.162,0.16,0.162,0.169,0.174,0.173,0.171,0.166,0.166,0.166,0.177,0.187,0.205,0.212,0.213,0.255,0.261,0.262,0.269,0.224,0.218,0.208,0.182,0.137,0.125,0.118,0.112,0.122,0.133,0.126,0.0868,0.12,0.341,0.743,0.949,0.795,0.353,0.154,0,0.0266,0.109,0.131,0.138,0.147,0.157,0.16,0.167,0.175,0.188,0.187,0.19,0.191,0.201,0.196,0.198,0.205,0.219,0.222,0,0,0,0,0,0,0,0,0,0,0,0,0,0,0,0,0,0,0,0,0,0,0,0,0,0,0,0,0,0,0,0,0,0
1,0.333,0,0.0951,0.316,0.513,0.538,0.602,0.58,0.593,0.604,0.555,0.621,0.583,0.593,0.621,0.551,0.611,0.569,0.586,0.607,0.539,0.598,0.574,0.58,0.601,0.541,0.601,0.553,0.552,0.555,0.479,0.525,0.475,0.48,0.54,0.502,0.602,0.598,0.644,0.693,0.636,0.699,0.657,0.67,0.689,0.624,0.663,0.639,0.648,0.678,0.634,0.699,0.667,0.687,0.744,0.689,0.757,0.733,0.75,0.774,0.732,0.765,0.73,0.735,0.78,0.725,0.772,0.745,0.758,0.778,0.734,0.775,0.742,0.75,0.788,0.728,0.795,0.766,0.762,0.779,0.737,0.793,0.754,0.784,0.804,0.765,0.816,0.771,0.789,0.813,0.763,0.801,0.78,0.793,0.798,0.754,0.826,0.845,0.903,0.936,0.898,0.947,0.949,0.937,0.93,0.852,0.856,0.78,0.792,0.766,0.709,0.757,0.716,0.743,0.763,0.725,0.62,0,0,0,0,0,0,0,0,0,0,0,0,0,0,0,0,0,0,0,0,0,0,0,0,0,0,0,0,0,0,0,0,0,0,0,0,0,0,0,0,0,0,0,0,0,0,0,0,0,0,0,0,0,0,0,0,0,0,0,0,0,0,0,0,0,0,0,0,0,1
1,0.6,0.28,0.0607,0,0.0797,0.161,0.218,0.241,0.237,0.261,0.243,0.27,0.281,0.261,0.288,0.249,0.279,0.282,0.263,0.294,0.267,0.293,0.306,0.295,0.346,0.324,0.365,0.365,0.387,0.425,0.411,0.448,0.456,0.445,0.458,0.428,0.447,0.425,0.4,0.403,0.361,0.379,0.361,0.332,0.328,0.279,0.311,0.302,0.28,0.293,0.268,0.305,0.307,0.296,0.312,0.302,0.333,0.339,0.33,0.368,0.356,0.389,0.393,0.376,0.407,0.374,0.382,0.358,0.322,0.343,0.316,0.305,0.292,0.28,0.299,0.267,0.285,0.275,0.351,0.534,0.672,0.965,0.66,0.404,0.163,0.0105,0.0594,0.138,0.223,0.253,0.245,0.284,0.271,0.266,0.26,0.26,0.278,0.276,0.257,0.277,0.254,0.28,0.277,0.281,0.295,0.29,0.324,0.318,0.34,0.389,0.386,0.425,0.455,0.446,0.468,0.45,0.455,0.436,0.406,0.379,0.337,0.33,0.299,0.254,0.247,0.218,0.237,0.224,0.206,0.216,0.189,0.229,0.225,0.205,0.227,0.213,0.252,0.234,0.226,0.252,0.23,0.263,0.26,0.243,0.25,0.237,0.258,0.244,0.237,0.257,0.218,0.245,0.243,0.222,0.248,0.221,0.239,0.241,0.225,0.241,0.213,0.259,0,0,0,0,0,0,0,0,0,0,0,0,0,0,0,0,0,0,0,0,0,0,0,0,1
1,0.709,0.241,0,0.0916,0.119,0.104,0.0936,0.0936,0.131,0.131,0.136,0.144,0.14,0.13,0.121,0.129,0.175,0.145,0.118,0.166,0.218,0.171,0.222,0.226,0.222,0.225,0.248,0.253,0.21,0.242,0.226,0.175,0.188,0.132,0.113,0.0818,0.128,0.126,0.102,0.126,0.146,0.131,0.174,0.115,0.138,0.196,0.206,0.163,0.156,0.146,0.184,0.198,0.196,0.145,0.19,0.196,0.196,0.216,0.115,0.222,0.171,0.127,0.153,0.144,0.172,0.131,0.155,0.147,0.123,0.116,0.17,0.142,0.227,0.26,0.266,0.273,0.284,0.25,0.333,0.315,0.216,0.18,0.167,0.105,0.0926,0.0857,0.0443,0.0355,0.0877,0.0749,0.0108,0.0197,0.0759,0.0995,0.188,0.378,0.467,0.797,0.917,0.653,0.135,0.0217,0.163,0.105,0.145,0.128,0.158,0.123,0.108,0.0995,0.147,0.145,0.158,0.166,0.143,0.165,0.163,0,0,0,0,0,0,0,0,0,0,0,0,0,0,0,0,0,0,0,0,0,0,0,0,0,0,0,0,0,0,0,0,0,0,0,0,0,0,0,0,0,0,0,0,0,0,0,0,0,0,0,0,0,0,0,0,0,0,0,0,0,0,0,0,0,0,0,0,0,1
0.879,1,0.601,0.228,0.174,0.152,0.202,0.206,0.2,0.202,0.198,0.193,0.198,0.194,0.182,0.179,0.179,0.189,0.193,0.205,0.206,0.21,0.219,0.221,0.225,0.239,0.234,0.25,0.269,0.277,0.303,0.317,0.331,0.331,0.341,0.335,0.317,0.292,0.256,0.223,0.191,0.166,0.152,0.159,0.168,0.159,0.159,0.152,0.148,0.136,0.139,0.136,0.139,0.135,0.129,0.123,0.129,0.115,0.129,0.126,0.136,0.152,0.147,0.155,0.163,0.152,0.151,0.144,0.149,0.148,0.147,0.145,0.139,0.141,0.123,0.111,0.115,0.126,0.158,0.182,0.185,0.202,0.212,0.212,0.2,0.159,0.116,0.0877,0.0531,0.0403,0.039,0.0448,0.0499,0.048,0.0576,0.0569,0.0646,0,0.0672,0.212,0.476,0.925,0.869,0.404,0.195,0.145,0.136,0.155,0.175,0.157,0.146,0.146,0.147,0.123,0.126,0.123,0.124,0.134,0.133,0.141,0.149,0,0,0,0,0,0,0,0,0,0,0,0,0,0,0,0,0,0,0,0,0,0,0,0,0,0,0,0,0,0,0,0,0,0,0,0,0,0,0,0,0,0,0,0,0,0,0,0,0,0,0,0,0,0,0,0,0,0,0,0,0,0,0,0,0,0,0
1,0.607,0.384,0.254,0.224,0.277,0.253,0.185,0.153,0.122,0.125,0.129,0.137,0.137,0.132,0.127,0.158,0.153,0.132,0.169,0.157,0.183,0.191,0.204,0.23,0.245,0.286,0.308,0.321,0.328,0.352,0.374,0.397,0.363,0.341,0.308,0.258,0.198,0.199,0.174,0.148,0.136,0.134,0.106,0.122,0.136,0.107,0.149,0.136,0.135,0.151,0.165,0.0944,0.107,0.121,0.141,0.123,0.136,0.132,0.151,0.117,0.133,0.104,0.137,0.119,0.115,0.0969,0.0912,0.129,0.1,0.0864,0.114,0.0412,0.0936,0.0815,0.0743,0.0807,0.0799,0.0783,0.0533,0.0751,0.0759,0.0807,0.104,0.0839,0.0767,0.119,0.113,0.0799,0.118,0.0936,0.118,0.0864,0.138,0.0993,0.0831,0.0694,0.0783,0.0533,0.096,0.14,0.111,0.162,0.123,0.138,0.0646,0.088,0.0613,0.0379,0.0395,0.0718,0.046,0.0452,0,0.0161,0.0654,0.157,0.225,0.461,0.951,0.607,0.335,0.225,0.212,0.248,0.216,0.117,0.0807,0.103,0.0678,0.131,0.0815,0.0799,0.0694,0.113,0.113,0.135,0.136,0.157,0.134,0.132,0.163,0.198,0.22,0.201,0.253,0,0,0,0,0,0,0,0,0,0,0,0,0,0,0,0,0,0,0,0,0,0,0,0,0,0,0,0,0,0,0,0,0,0,0,0,0,0,0,0,0,1
0.997,0.35,0.0602,0.0169,0.0522,0.111,0.163,0.171,0.174,0.167,0.174,0.183,0.18,0.183,0.183,0.183,0.188,0.196,0.192,0.201,0.205,0.213,0.215,0.229,0.226,0.237,0.25,0.255,0.274,0.284,0.296,0.308,0.312,0.316,0.284,0.277,0.256,0.24,0.221,0.208,0.204,0.203,0.195,0.181,0.193,0.193,0.194,0.195,0.196,0.196,0.199,0.191,0.201,0.193,0.201,0.195,0.194,0.203,0.187,0.195,0.184,0.176,0.175,0.162,0.169,0.157,0.163,0.174,0.201,0.231,0.231,0.228,0.279,0.286,0.288,0.285,0.256,0.211,0.195,0.168,0.139,0.151,0.14,0.148,0.124,0.123,0.14,0.134,0.0918,0.177,0.446,0.746,0.963,1,0.331,0.0391,0,0.0508,0.096,0.15,0.144,0.159,0.16,0.17,0.18,0.175,0.175,0.176,0.177,0.186,0.189,0.19,0.194,0.2,0.207,0.221,0.217,0,0,0,0,0,0,0,0,0,0,0,0,0,0,0,0,0,0,0,0,0,0,0,0,0,0,0,0,0,0,0,0,0,0,0,0,0,0,0,0,0,0,0,0,0,0,0,0,0,0,0,0,0,0,0,0,0,0,0,0,0,0,0,0,0,0,0,0,0,0,0
0.981,0.782,0.625,0.644,0.599,0.642,0.65,0.446,0.41,0.391,0.382,0.416,0.392,0.417,0.405,0.407,0.423,0.397,0.4,0.354,0.374,0.38,0.333,0.345,0.315,0.294,0.266,0.211,0.188,0.144,0.075,0.0463,0,0.0215,0.0423,0.0782,0.178,0.208,0.251,0.33,0.362,0.425,0.455,0.449,0.453,0.456,0.454,0.447,0.463,0.446,0.445,0.475,0.451,0.474,0.449,0.481,0.502,0.503,0.5,0.52,0.511,0.51,0.532,0.535,0.547,0.54,0.537,0.509,0.528,0.524,0.499,0.508,0.5,0.512,0.497,0.452,0.549,0.522,0.532,0.56,0.533,0.539,0.532,0.537,0.54,0.533,0.555,0.524,0.506,0.51,0.467,0.48,0.46,0.465,0.467,0.46,0.462,0.421,0.465,0.465,0.492,0.461,0.449,0.439,0.358,0.326,0.483,0.885,1,0.842,0.683,0.737,0.678,0.7,0.67,0.501,0.498,0.483,0.464,0.496,0.494,0.504,0.489,0.511,0.453,0.467,0.477,0.449,0,0,0,0,0,0,0,0,0,0,0,0,0,0,0,0,0,0,0,0,0,0,0,0,0,0,0,0,0,0,0,0,0,0,0,0,0,0,0,0,0,0,0,0,0,0,0,0,0,0,0,0,0,0,0,0,0,0,0,1
0.905,0.876,0.654,0.469,0.221,0.0529,0.0831,0.123,0.226,0.382,0.492,0.529,0.544,0.551,0.566,0.557,0.559,0.565,0.562,0.57,0.566,0.569,0.576,0.577,0.575,0.575,0.58,0.572,0.573,0.571,0.573,0.578,0.571,0.565,0.576,0.571,0.57,0.57,0.566,0.571,0.568,0.574,0.571,0.57,0.571,0.566,0.569,0.575,0.564,0.561,0.554,0.56,0.561,0.564,0.569,0.562,0.561,0.566,0.569,0.568,0.567,0.565,0.559,0.562,0.559,0.555,0.557,0.549,0.552,0.548,0.55,0.547,0.547,0.551,0.552,0.548,0.549,0.546,0.541,0.544,0.544,0.548,0.542,0.54,0.541,0.536,0.544,0.536,0.534,0.534,0.536,0.532,0.525,0.533,0.532,0.527,0.54,0.54,0.536,0.542,0.537,0.54,0.533,0.539,0.542,0.537,0.542,0.538,0.542,0.549,0.546,0.548,0.55,0.551,0.556,0.547,0.574,0.596,0.607,0.603,0.579,0.604,0.59,0.559,0.563,0.568,0.561,0.553,0.529,0.523,0.517,0.525,0.519,0.519,0.525,0.525,0.529,0.523,0.534,0.533,0.536,0.554,0.597,0.644,0.709,0.919,1,0.735,0.488,0.277,0,0.0169,0.0698,0.144,0.3,0.463,0.521,0.531,0.542,0.556,0.556,0.565,0.56,0.565,0.565,0.567,0.563,0.567,0.567,0.575,0.57,0.573,0,0,0,0,0,0,0,0,0,0,0,0,0,0,0,1
0.909,0.791,0.423,0.187,0,0.00784,0.063,0.077,0.075,0.0773,0.0773,0.0872,0.092,0.0951,0.0964,0.105,0.108,0.114,0.117,0.12,0.124,0.132,0.146,0.153,0.164,0.175,0.189,0.205,0.229,0.253,0.276,0.303,0.321,0.334,0.346,0.349,0.347,0.334,0.307,0.275,0.238,0.206,0.184,0.163,0.145,0.135,0.126,0.12,0.116,0.113,0.11,0.113,0.111,0.109,0.112,0.112,0.116,0.12,0.121,0.121,0.118,0.123,0.124,0.126,0.124,0.126,0.127,0.122,0.127,0.126,0.129,0.126,0.124,0.125,0.132,0.129,0.127,0.124,0.126,0.123,0.121,0.122,0.121,0.126,0.123,0.124,0.122,0.125,0.128,0.132,0.132,0.135,0.137,0.136,0.137,0.135,0.135,0.135,0.136,0.141,0.139,0.141,0.141,0.144,0.145,0.144,0.144,0.145,0.149,0.148,0.151,0.148,0.147,0.124,0.149,0.152,0.163,0.188,0.209,0.216,0.254,0.258,0.26,0.261,0.233,0.22,0.213,0.17,0.14,0.13,0.127,0.125,0.126,0.129,0.113,0.135,0.229,0.591,0.99,1,0.675,0.333,0.132,0.0777,0.134,0.167,0.166,0.168,0.168,0.17,0.174,0.178,0.184,0.186,0.191,0.195,0.202,0.208,0.212,0.22,0.228,0.239,0.249,0.255,0.27,0,0,0,0,0,0,0,0,0,0,0,0,0,0,0,0,0,0,0,0,0,0,0
1,0.843,0.416,0.124,0,0.11,0.152,0.152,0.149,0.152,0.178,0.177,0.151,0.156,0.173,0.181,0.186,0.195,0.209,0.195,0.215,0.197,0.215,0.208,0.211,0.233,0.242,0.249,0.26,0.25,0.285,0.306,0.315,0.319,0.312,0.336,0.351,0.361,0.354,0.35,0.349,0.339,0.349,0.293,0.299,0.266,0.243,0.217,0.207,0.193,0.191,0.199,0.191,0.199,0.192,0.196,0.194,0.19,0.19,0.174,0.183,0.203,0.158,0.166,0.176,0.18,0.194,0.175,0.17,0.169,0.191,0.185,0.174,0.169,0.17,0.197,0.16,0.155,0.152,0.16,0.169,0.186,0.158,0.157,0.161,0.152,0.172,0.164,0.142,0.149,0.167,0.165,0.165,0.155,0.146,0.149,0.19,0.183,0.162,0.167,0.143,0.174,0.177,0.159,0.231,0.267,0.277,0.251,0.28,0.258,0.252,0.201,0.205,0.176,0.151,0.161,0.171,0.143,0.138,0.12,0.157,0.154,0.106,0.174,0.392,0.969,0.827,0.407,0.0816,0.0292,0.161,0.189,0.164,0.175,0.185,0.194,0.183,0.164,0.188,0.165,0.196,0.201,0.192,0.228,0.22,0.223,0.254,0.223,0.218,0.249,0,0,0,0,0,0,0,0,0,0,0,0,0,0,0,0,0,0,0,0,0,0,0,0,0,0,0,0,0,0,0,0,0,0,0,0,0,1
0.974,0.857,0.43,0.254,0.174,0.156,0.123,0.106,0.0979,0.0921,0.0863,0.0822,0.0839,0.086,0.0831,0.0906,0.0985,0.101,0.102,0.106,0.111,0.123,0.137,0.147,0.164,0.186,0.212,0.235,0.258,0.272,0.287,0.297,0.305,0.307,0.3,0.288,0.268,0.238,0.212,0.182,0.163,0.143,0.129,0.117,0.105,0.105,0.0961,0.0871,0.0816,0.0761,0.0807,0.0842,0.0787,0.0802,0.0819,0.0816,0.0781,0.0729,0.0726,0.0677,0.0584,0.0543,0.0459,0.0433,0.0395,0.0447,0.0462,0.0494,0.0534,0.0601,0.0616,0.0668,0.0627,0.0575,0.054,0.0537,0.0523,0.0508,0.0473,0.0549,0.0532,0.0514,0.0471,0.0494,0.0421,0.0511,0.0668,0.0773,0.0927,0.0979,0.095,0.105,0.0906,0.0749,0.0444,0.0354,0.0302,0.0261,0.0177,0.0137,0.0134,0.00813,0.0128,0.0235,0.029,0.0238,0,0.000581,0.119,0.26,0.381,0.669,1,0.77,0.374,0.222,0.171,0.138,0.104,0.086,0.0805,0.0822,0.0883,0.099,0.104,0.107,0.1,0.0996,0.101,0.108,0.116,0.125,0.134,0.137,0.148,0.16,0.173,0.191,0.208,0.232,0.252,0.273,0.29,0.301,0.304,0,0,0,0,0,0,0,0,0,0,0,0,0,0,0,0,0,0,0,0,0,0,0,0,0,0,0,0,0,0,0,0,0,0,0,0,0,0,0,0,0,0,0
1,0.804,0.238,0.0734,0.0976,0.176,0.184,0.175,0.179,0.178,0.178,0.184,0.182,0.187,0.188,0.19,0.193,0.19,0.201,0.2,0.209,0.224,0.224,0.243,0.255,0.276,0.301,0.324,0.365,0.394,0.424,0.46,0.479,0.491,0.456,0.401,0.337,0.277,0.244,0.205,0.182,0.17,0.155,0.156,0.152,0.15,0.147,0.144,0.156,0.149,0.147,0.154,0.146,0.156,0.156,0.158,0.159,0.153,0.157,0.15,0.149,0.152,0.14,0.146,0.142,0.139,0.137,0.13,0.13,0.134,0.126,0.127,0.127,0.139,0.145,0.166,0.177,0.169,0.18,0.169,0.154,0.15,0.134,0.131,0.124,0.108,0.104,0.0923,0.0985,0.0967,0.0905,0.0951,0.0877,0.101,0.0979,0.092,0.0753,0,0.0846,0.265,0.756,0.923,0.527,0.0989,0.0257,0.0604,0.131,0.123,0.135,0.132,0.128,0.138,0.131,0.14,0.145,0.148,0.154,0.148,0.16,0.162,0.165,0.176,0.179,0.202,0.216,0.237,0,0,0,0,0,0,0,0,0,0,0,0,0,0,0,0,0,0,0,0,0,0,0,0,0,0,0,0,0,0,0,0,0,0,0,0,0,0,0,0,0,0,0,0,0,0,0,0,0,0,0,0,0,0,0,0,0,0,0,0,0,0
1,0.479,0.0568,0.0642,0.0813,0.0727,0.0556,0.0488,0.0545,0.0416,0.0491,0.0513,0.0493,0.0459,0.0499,0.0539,0.0496,0.0459,0.055,0.0536,0.0636,0.0662,0.0833,0.095,0.116,0.131,0.153,0.178,0.21,0.233,0.266,0.287,0.306,0.317,0.305,0.265,0.224,0.192,0.141,0.112,0.0924,0.0696,0.0739,0.0559,0.0642,0.0559,0.0533,0.0542,0.0627,0.0639,0.0639,0.0687,0.0673,0.0647,0.0653,0.0693,0.0647,0.0656,0.0645,0.0605,0.0656,0.0665,0.0565,0.0602,0.0519,0.0519,0.0502,0.0491,0.0454,0.0579,0.0522,0.0394,0.0442,0.0419,0.0473,0.0468,0.0436,0.0428,0.0405,0.0371,0.0473,0.0425,0.0396,0.0405,0.0374,0.0391,0.0442,0.0374,0.0351,0.0311,0.0345,0.0297,0.0365,0.0305,0.0351,0.0419,0.0374,0.0357,0.0302,0.0388,0.0362,0.0285,0.0354,0.0388,0.0319,0.0431,0.0351,0.0362,0.0382,0.0599,0.0722,0.0713,0.0887,0.124,0.113,0.121,0.13,0.103,0.0813,0.0593,0.0345,0.0277,0.0337,0.028,0.0188,0.0222,0.0248,0.0234,0.0254,0,0.0106,0.275,0.659,0.939,0.77,0.141,0.061,0.087,0,0,0,0,0,0,0,0,0,0,0,0,0,0,0,0,0,0,0,0,0,0,0,0,0,0,0,0,0,0,0,0,0,0,0,0,0,0,0,0,0,0,0,0,0,0,0,0,0,0
1,0.792,0.475,0.323,0.268,0.243,0.231,0.226,0.222,0.223,0.229,0.225,0.229,0.224,0.222,0.219,0.21,0.227,0.213,0.217,0.22,0.22,0.205,0.213,0.199,0.188,0.195,0.187,0.188,0.171,0.17,0.178,0.18,0.201,0.192,0.209,0.221,0.214,0.209,0.223,0.214,0.215,0.21,0.208,0.212,0.213,0.205,0.2,0.196,0.206,0.206,0.205,0.217,0.205,0.201,0.201,0.192,0.206,0.189,0.199,0.202,0.186,0.188,0.189,0.197,0.202,0.201,0.21,0.185,0.196,0.19,0.196,0.19,0.188,0.188,0.177,0.188,0.189,0.189,0.199,0.206,0.205,0.217,0.199,0.168,0.179,0.215,0.168,0.171,0.167,0.173,0.176,0.174,0.178,0.167,0.0717,0,0.124,0.492,0.779,0.962,0.692,0.411,0.282,0.239,0.209,0.207,0.201,0.205,0.206,0.192,0.197,0.199,0.204,0.218,0.181,0.205,0.201,0,0,0,0,0,0,0,0,0,0,0,0,0,0,0,0,0,0,0,0,0,0,0,0,0,0,0,0,0,0,0,0,0,0,0,0,0,0,0,0,0,0,0,0,0,0,0,0,0,0,0,0,0,0,0,0,0,0,0,0,0,0,0,0,0,0,0,0,0,1
1,0.645,0.309,0.0763,0.0333,0.236,0.283,0.294,0.318,0.33,0.347,0.353,0.356,0.354,0.36,0.371,0.376,0.387,0.376,0.397,0.412,0.429,0.457,0.485,0.515,0.544,0.579,0.608,0.628,0.644,0.658,0.667,0.649,0.595,0.542,0.49,0.442,0.405,0.374,0.348,0.342,0.329,0.323,0.32,0.323,0.312,0.312,0.324,0.309,0.316,0.313,0.312,0.315,0.303,0.313,0.306,0.317,0.314,0.305,0.312,0.301,0.306,0.297,0.302,0.304,0.297,0.297,0.301,0.295,0.289,0.299,0.289,0.274,0.288,0.287,0.279,0.278,0.28,0.29,0.283,0.282,0.284,0.278,0.276,0.285,0.274,0.273,0.278,0.279,0.279,0.285,0.278,0.302,0.324,0.356,0.37,0.41,0.417,0.406,0.381,0.417,0.367,0.331,0.285,0.271,0.274,0.278,0.267,0.265,0.278,0.272,0.281,0.283,0.408,0.433,0.548,0.913,0.919,0.427,0.197,0,0.0782,0.239,0.263,0.282,0.297,0.31,0.306,0.322,0,0,0,0,0,0,0,0,0,0,0,0,0,0,0,0,0,0,0,0,0,0,0,0,0,0,0,0,0,0,0,0,0,0,0,0,0,0,0,0,0,0,0,0,0,0,0,0,0,0,0,0,0,0,0,0,0,0,0
1,0.761,0.27,0,0.249,0.312,0.397,0.426,0.413,0.423,0.45,0.441,0.442,0.449,0.449,0.439,0.463,0.459,0.456,0.461,0.457,0.454,0.477,0.489,0.482,0.479,0.475,0.496,0.487,0.512,0.501,0.558,0.545,0.558,0.564,0.577,0.609,0.606,0.615,0.603,0.589,0.548,0.516,0.477,0.465,0.426,0.393,0.404,0.388,0.367,0.379,0.368,0.356,0.369,0.366,0.377,0.399,0.387,0.394,0.405,0.391,0.411,0.391,0.407,0.402,0.396,0.392,0.383,0.399,0.366,0.393,0.385,0.376,0.379,0.369,0.357,0.372,0.371,0.367,0.364,0.34,0.36,0.371,0.362,0.353,0.353,0.354,0.354,0.347,0.359,0.347,0.344,0.351,0.342,0.341,0.355,0.389,0.414,0.428,0.419,0.416,0.418,0.421,0.418,0.408,0.4,0.381,0.38,0.338,0.337,0.314,0.318,0.326,0.302,0.322,0.321,0.296,0.32,0.262,0.354,0.576,0.862,0.973,0.719,0.279,0.0103,0.247,0.326,0.365,0.383,0.393,0.397,0.424,0.411,0.428,0.411,0.42,0.42,0.425,0.419,0.426,0.43,0.431,0.436,0.442,0.449,0.436,0,0,0,0,0,0,0,0,0,0,0,0,0,0,0,0,0,0,0,0,0,0,0,0,0,0,0,0,0,0,0,0,0,0,0,0,0,0,0,0,0
0.921,0.841,0.448,0.251,0.0286,0.139,0.173,0.241,0.198,0.253,0.242,0.212,0.234,0.208,0.25,0.252,0.226,0.257,0.215,0.268,0.241,0.221,0.249,0.238,0.282,0.242,0.242,0.279,0.263,0.306,0.314,0.29,0.345,0.325,0.385,0.355,0.366,0.391,0.365,0.39,0.337,0.316,0.323,0.303,0.308,0.289,0.267,0.293,0.262,0.301,0.291,0.282,0.297,0.269,0.294,0.279,0.251,0.309,0.249,0.294,0.278,0.266,0.307,0.273,0.305,0.282,0.254,0.271,0.247,0.279,0.254,0.25,0.271,0.262,0.285,0.263,0.257,0.319,0.296,0.339,0.311,0.362,0.4,0.361,0.401,0.341,0.303,0.295,0.245,0.273,0.21,0.192,0.208,0.19,0.227,0.205,0.19,0.226,0.179,0.415,0.466,0.746,1,0.629,0.329,0.0749,0,0.176,0.196,0.225,0.232,0.223,0.239,0.231,0.25,0.236,0.234,0.263,0.227,0.275,0.239,0.226,0,0,0,0,0,0,0,0,0,0,0,0,0,0,0,0,0,0,0,0,0,0,0,0,0,0,0,0,0,0,0,0,0,0,0,0,0,0,0,0,0,0,0,0,0,0,0,0,0,0,0,0,0,0,0,0,0,0,0,0,0,0,0,0,0,1
0.918,0.762,0.549,0.0928,0,0.0512,0.0551,0.0705,0.0551,0.0667,0.0464,0.0531,0.0734,0.0483,0.0628,0.0522,0.0676,0.0918,0.0715,0.106,0.0908,0.122,0.159,0.145,0.198,0.212,0.249,0.303,0.322,0.376,0.405,0.436,0.487,0.482,0.505,0.482,0.453,0.431,0.346,0.329,0.291,0.246,0.259,0.232,0.245,0.212,0.227,0.232,0.208,0.234,0.211,0.222,0.227,0.19,0.216,0.196,0.197,0.193,0.174,0.197,0.175,0.169,0.181,0.172,0.185,0.17,0.172,0.191,0.181,0.196,0.186,0.192,0.199,0.173,0.196,0.173,0.177,0.214,0.175,0.199,0.182,0.181,0.191,0.178,0.199,0.167,0.162,0.186,0.161,0.185,0.167,0.181,0.199,0.169,0.186,0.168,0.253,0.305,0.308,0.329,0.347,0.419,0.439,0.457,0.419,0.336,0.282,0.225,0.163,0.164,0.133,0.122,0.133,0.123,0.195,0.249,0.556,1,0.679,0.44,0.0406,0.0348,0.124,0.1,0.14,0.112,0.126,0.131,0.0947,0.129,0.109,0.103,0.123,0.123,0.161,0.146,0.157,0.185,0.182,0.23,0,0,0,0,0,0,0,0,0,0,0,0,0,0,0,0,0,0,0,0,0,0,0,0,0,0,0,0,0,0,0,0,0,0,0,0,0,0,0,0,0,0,0,0,0,0,0,1
0.997,0.391,0.221,0.0395,0.0541,0.162,0.224,0.236,0.246,0.249,0.249,0.252,0.257,0.261,0.265,0.271,0.286,0.278,0.29,0.292,0.304,0.305,0.327,0.328,0.356,0.36,0.392,0.401,0.404,0.407,0.413,0.424,0.436,0.416,0.388,0.356,0.32,0.302,0.271,0.249,0.238,0.234,0.235,0.233,0.23,0.235,0.229,0.224,0.239,0.228,0.233,0.228,0.219,0.237,0.228,0.23,0.22,0.21,0.219,0.218,0.209,0.208,0.206,0.189,0.206,0.193,0.19,0.195,0.203,0.206,0.212,0.202,0.204,0.2,0.227,0.25,0.279,0.313,0.347,0.386,0.309,0.253,0.247,0.222,0.178,0.151,0.146,0.147,0.14,0.145,0.162,0.155,0.161,0.171,0.161,0.171,0.238,0.295,0.514,1,0.704,0.211,0.13,0,0.0951,0.184,0.234,0.235,0.247,0.246,0.244,0.247,0.249,0.258,0.263,0.27,0.274,0.266,0,0,0,0,0,0,0,0,0,0,0,0,0,0,0,0,0,0,0,0,0,0,0,0,0,0,0,0,0,0,0,0,0,0,0,0,0,0,0,0,0,0,0,0,0,0,0,0,0,0,0,0,0,0,0,0,0,0,0,0,0,0,0,0,0,0,0,0,0,0
0.97,0.999,0.609,0.389,0.26,0.217,0.247,0.256,0.238,0.258,0.251,0.257,0.239,0.246,0.268,0.243,0.254,0.271,0.247,0.268,0.28,0.269,0.292,0.286,0.304,0.306,0.291,0.306,0.305,0.326,0.322,0.32,0.325,0.299,0.327,0.299,0.296,0.294,0.272,0.28,0.275,0.274,0.286,0.258,0.274,0.275,0.274,0.266,0.247,0.257,0.267,0.245,0.246,0.236,0.245,0.249,0.247,0.256,0.247,0.254,0.257,0.25,0.256,0.251,0.257,0.259,0.255,0.267,0.243,0.254,0.247,0.241,0.258,0.24,0.256,0.242,0.232,0.25,0.236,0.24,0.244,0.229,0.241,0.229,0.237,0.228,0.226,0.239,0.217,0.229,0.224,0.226,0.226,0.209,0.224,0.225,0.226,0.214,0.215,0.238,0.224,0.224,0.235,0.219,0.233,0.243,0.248,0.279,0.264,0.262,0.245,0.248,0.242,0.201,0.223,0.205,0.209,0.201,0.188,0.19,0.185,0.194,0.201,0.195,0.185,0.101,0,0.0889,0.847,1,0.579,0.39,0.225,0.168,0.199,0.189,0.184,0.197,0.186,0.196,0.196,0.201,0.191,0.173,0.197,0.202,0.201,0.208,0.205,0.217,0.214,0.231,0.239,0.224,0,0,0,0,0,0,0,0,0,0,0,0,0,0,0,0,0,0,0,0,0,0,0,0,0,0,0,0,0,0,0,0,0,1
0.971,0.828,0.294,0.0496,0.0548,0.122,0.123,0.12,0.118,0.121,0.122,0.119,0.112,0.12,0.116,0.124,0.125,0.12,0.133,0.145,0.156,0.158,0.164,0.169,0.18,0.196,0.209,0.223,0.238,0.258,0.3,0.327,0.371,0.417,0.454,0.483,0.484,0.458,0.406,0.344,0.286,0.237,0.199,0.174,0.156,0.147,0.141,0.138,0.12,0.121,0.123,0.116,0.119,0.12,0.121,0.128,0.117,0.122,0.125,0.126,0.131,0.128,0.13,0.125,0.125,0.126,0.113,0.118,0.117,0.11,0.116,0.106,0.106,0.0944,0.0887,0.0956,0.0875,0.0847,0.0859,0.0831,0.0839,0.0734,0.0786,0.0911,0.126,0.14,0.142,0.153,0.153,0.152,0.148,0.124,0.125,0.111,0.0907,0.0871,0.0778,0.077,0.0831,0.077,0.0843,0.0738,0.0774,0.0802,0.0774,0.0782,0.0726,0.0694,0.0367,0,0.155,0.433,1,0.931,0.358,0.0734,0.0593,0.134,0.138,0.125,0.119,0.114,0.112,0.112,0.112,0.113,0.107,0.107,0.102,0.1,0.0996,0.0996,0.111,0.111,0.121,0.136,0,0,0,0,0,0,0,0,0,0,0,0,0,0,0,0,0,0,0,0,0,0,0,0,0,0,0,0,0,0,0,0,0,0,0,0,0,0,0,0,0,0,0,0,0,0,0,0,0,0,0,0
1,0.922,0.659,0.353,0.175,0.176,0.163,0.152,0.125,0.117,0.166,0.141,0.122,0.186,0.154,0.186,0.192,0.155,0.179,0.161,0.205,0.194,0.231,0.238,0.25,0.276,0.29,0.334,0.353,0.362,0.396,0.397,0.402,0.367,0.392,0.418,0.362,0.322,0.272,0.231,0.207,0.177,0.144,0.136,0.134,0.131,0.133,0.114,0.158,0.129,0.162,0.153,0.136,0.16,0.0692,0.154,0.132,0.13,0.157,0.123,0.156,0.147,0.144,0.154,0.125,0.162,0.15,0.149,0.167,0.129,0.158,0.11,0.115,0.174,0.118,0.122,0.172,0.165,0.198,0.182,0.239,0.211,0.182,0.205,0.16,0.147,0.122,0.0895,0.0895,0.0779,0,0.0862,0.0741,0.0499,0.0763,0.0829,0.0549,0.0472,0.0812,0.09,0.387,0.898,0.909,0.568,0.266,0.13,0.115,0.133,0.122,0.0884,0.132,0.104,0.104,0.128,0.116,0.156,0.122,0.126,0.127,0.143,0.19,0,0,0,0,0,0,0,0,0,0,0,0,0,0,0,0,0,0,0,0,0,0,0,0,0,0,0,0,0,0,0,0,0,0,0,0,0,0,0,0,0,0,0,0,0,0,0,0,0,0,0,0,0,0,0,0,0,0,0,0,0,0,0,0,0,0,1
0.982,0.88,0.405,0.147,0,0.142,0.275,0.296,0.31,0.336,0.341,0.355,0.354,0.36,0.365,0.379,0.371,0.377,0.395,0.405,0.421,0.427,0.444,0.481,0.505,0.533,0.577,0.609,0.645,0.656,0.674,0.676,0.662,0.629,0.581,0.526,0.474,0.443,0.402,0.381,0.367,0.359,0.364,0.358,0.362,0.355,0.36,0.355,0.357,0.36,0.348,0.358,0.362,0.357,0.353,0.35,0.355,0.353,0.357,0.369,0.35,0.359,0.361,0.364,0.36,0.352,0.353,0.346,0.343,0.354,0.342,0.344,0.348,0.349,0.353,0.339,0.343,0.339,0.341,0.334,0.342,0.334,0.348,0.341,0.334,0.339,0.338,0.333,0.348,0.374,0.414,0.415,0.445,0.461,0.446,0.434,0.465,0.412,0.372,0.334,0.324,0.317,0.313,0.32,0.317,0.315,0.314,0.319,0.333,0.466,0.498,0.633,1,0.992,0.481,0.207,0.0367,0.157,0.308,0.333,0.35,0.376,0.379,0.382,0.388,0.388,0.4,0.404,0.406,0.422,0.427,0.441,0.447,0,0,0,0,0,0,0,0,0,0,0,0,0,0,0,0,0,0,0,0,0,0,0,0,0,0,0,0,0,0,0,0,0,0,0,0,0,0,0,0,0,0,0,0,0,0,0,0,0,0,0,0,0,0,0
1,0.806,0.281,0.0689,0.0901,0.0873,0.0772,0.0666,0.0647,0.0649,0.0621,0.0678,0.068,0.0758,0.0812,0.0826,0.0913,0.0911,0.1,0.108,0.111,0.121,0.125,0.13,0.143,0.151,0.167,0.181,0.2,0.224,0.234,0.256,0.269,0.286,0.289,0.274,0.248,0.211,0.175,0.139,0.113,0.0948,0.0762,0.0696,0.0687,0.0624,0.0631,0.0593,0.0579,0.0612,0.0579,0.0614,0.0574,0.0598,0.0616,0.0572,0.0572,0.0544,0.0546,0.0541,0.0475,0.0511,0.0445,0.0426,0.0416,0.036,0.0426,0.0395,0.04,0.0398,0.0358,0.0398,0.0341,0.0334,0.0369,0.0327,0.0344,0.0315,0.032,0.032,0.0264,0.0275,0.024,0.0278,0.0273,0.0235,0.0273,0.0294,0.0334,0.0424,0.0452,0.0428,0.0501,0.0541,0.048,0.04,0.0353,0.0325,0.0212,0.0122,0.00941,0.0108,0.0122,0.0132,0.0188,0.0141,0.0172,0.0148,0,0.00447,0.0939,0.376,0.648,0.954,0.737,0.218,0.0447,0.0649,0.0612,0.0475,0.0358,0.0391,0.0386,0.0431,0.0407,0.0428,0.0536,0.0539,0.0619,0.0647,0.0645,0.0727,0.0762,0.0831,0.0859,0.0906,0.104,0.113,0,0,0,0,0,0,0,0,0,0,0,0,0,0,0,0,0,0,0,0,0,0,0,0,0,0,0,0,0,0,0,0,0,0,0,0,0,0,0,0,0,0,0,0,0,0,0,0,0,0
1,0.904,0.467,0.123,0.0256,0.237,0.314,0.325,0.345,0.354,0.364,0.372,0.378,0.391,0.389,0.4,0.408,0.419,0.433,0.445,0.46,0.476,0.493,0.522,0.563,0.593,0.634,0.665,0.704,0.731,0.754,0.758,0.75,0.717,0.64,0.572,0.5,0.437,0.391,0.358,0.345,0.328,0.325,0.312,0.306,0.307,0.305,0.306,0.304,0.308,0.308,0.316,0.321,0.316,0.327,0.339,0.336,0.335,0.339,0.34,0.337,0.33,0.337,0.326,0.317,0.306,0.31,0.306,0.314,0.308,0.308,0.302,0.298,0.305,0.294,0.305,0.302,0.302,0.293,0.289,0.284,0.287,0.279,0.279,0.276,0.283,0.272,0.273,0.283,0.286,0.276,0.275,0.276,0.289,0.327,0.367,0.38,0.402,0.447,0.431,0.435,0.457,0.408,0.339,0.293,0.254,0.252,0.256,0.256,0.247,0.246,0.24,0.243,0.275,0.409,0.428,0.632,0.97,0.821,0.339,0.0472,0,0.215,0.265,0.28,0.306,0.308,0.318,0.312,0.33,0.331,0.34,0.344,0.349,0.358,0.374,0.387,0.401,0.43,0.451,0,0,0,0,0,0,0,0,0,0,0,0,0,0,0,0,0,0,0,0,0,0,0,0,0,0,0,0,0,0,0,0,0,0,0,0,0,0,0,0,0,0,0,0,0,0,0,0
0.889,1,0.712,0.517,0.362,0.31,0.228,0.163,0.172,0.158,0.17,0.163,0.153,0.182,0.176,0.193,0.198,0.198,0.206,0.207,0.233,0.235,0.253,0.283,0.289,0.309,0.317,0.334,0.332,0.335,0.354,0.329,0.329,0.312,0.295,0.286,0.258,0.216,0.22,0.183,0.191,0.16,0.151,0.144,0.114,0.11,0.107,0.12,0.141,0.128,0.122,0.109,0.0927,0.134,0.111,0.12,0.109,0.108,0.101,0.0759,0.099,0.087,0.0894,0.0975,0.0932,0.106,0.0956,0.0908,0.121,0.116,0.114,0.109,0.129,0.136,0.125,0.152,0.165,0.163,0.169,0.18,0.182,0.151,0.176,0.165,0.132,0.142,0.127,0.0735,0.0557,0.0288,0.036,0.0394,0.0226,0.0288,0.0187,0.00769,0.0115,0,0.0264,0.158,0.529,0.909,0.691,0.404,0.324,0.238,0.156,0.0827,0.0663,0.0615,0.0697,0.0759,0.0975,0.108,0.125,0.126,0.115,0.12,0.132,0.14,0.165,0,0,0,0,0,0,0,0,0,0,0,0,0,0,0,0,0,0,0,0,0,0,0,0,0,0,0,0,0,0,0,0,0,0,0,0,0,0,0,0,0,0,0,0,0,0,0,0,0,0,0,0,0,0,0,0,0,0,0,0,0,0,0,0,0,0,1
1,0.941,0.698,0.442,0.284,0.18,0.156,0.125,0.101,0.113,0.104,0.102,0.0972,0.102,0.104,0.0988,0.0972,0.104,0.102,0.0994,0.0994,0.1,0.109,0.103,0.105,0.119,0.121,0.138,0.147,0.16,0.178,0.208,0.208,0.218,0.236,0.242,0.235,0.221,0.204,0.184,0.164,0.146,0.14,0.133,0.128,0.125,0.118,0.124,0.124,0.124,0.123,0.127,0.13,0.132,0.129,0.129,0.138,0.138,0.14,0.135,0.137,0.134,0.132,0.135,0.126,0.129,0.138,0.129,0.125,0.128,0.126,0.123,0.12,0.124,0.122,0.14,0.15,0.148,0.147,0.171,0.192,0.196,0.181,0.135,0.123,0.108,0.101,0.0929,0.0898,0.101,0.0982,0.0784,0.0381,0,0.126,0.36,0.781,0.952,0.777,0.552,0.324,0.174,0.134,0.108,0.087,0.0793,0.0725,0.0774,0.0753,0.0722,0.0706,0.0678,0.0811,0.0731,0.0681,0.0573,0.0827,0.078,0.0799,0.0849,0.0892,0.0821,0.0966,0,0,0,0,0,0,0,0,0,0,0,0,0,0,0,0,0,0,0,0,0,0,0,0,0,0,0,0,0,0,0,0,0,0,0,0,0,0,0,0,0,0,0,0,0,0,0,0,0,0,0,0,0,0,0,0,0,0,0,0,0,0,0,0,0
1,0.791,0.294,0.00991,0,0.224,0.268,0.272,0.304,0.304,0.312,0.325,0.318,0.337,0.346,0.352,0.358,0.362,0.384,0.393,0.404,0.432,0.448,0.473,0.51,0.556,0.609,0.654,0.689,0.717,0.736,0.732,0.718,0.666,0.591,0.501,0.439,0.378,0.337,0.311,0.287,0.282,0.277,0.271,0.265,0.264,0.265,0.27,0.278,0.29,0.283,0.293,0.289,0.299,0.299,0.304,0.297,0.297,0.298,0.288,0.299,0.293,0.289,0.283,0.272,0.278,0.274,0.267,0.288,0.278,0.27,0.279,0.268,0.265,0.266,0.268,0.272,0.27,0.265,0.268,0.271,0.273,0.268,0.268,0.271,0.261,0.263,0.272,0.265,0.263,0.268,0.299,0.34,0.363,0.403,0.434,0.399,0.377,0.42,0.357,0.314,0.26,0.253,0.254,0.248,0.257,0.264,0.255,0.258,0.259,0.347,0.418,0.5,0.83,0.944,0.691,0.306,0.0729,0.051,0.258,0.306,0.311,0.341,0.343,0.351,0.363,0.366,0.376,0.386,0.404,0.408,0.424,0.437,0.454,0.479,0.488,0.517,0.541,0.585,0.636,0,0,0,0,0,0,0,0,0,0,0,0,0,0,0,0,0,0,0,0,0,0,0,0,0,0,0,0,0,0,0,0,0,0,0,0,0,0,0,0,0,0,0,0,0,0,0,0
0.957,1,0.81,0.39,0.137,0,0.0582,0.117,0.119,0.114,0.116,0.119,0.127,0.131,0.136,0.137,0.141,0.148,0.16,0.163,0.17,0.181,0.194,0.206,0.22,0.228,0.243,0.265,0.288,0.315,0.343,0.367,0.39,0.403,0.412,0.418,0.413,0.4,0.374,0.333,0.3,0.258,0.228,0.206,0.187,0.173,0.16,0.155,0.149,0.149,0.151,0.141,0.135,0.133,0.133,0.133,0.13,0.132,0.129,0.134,0.131,0.135,0.134,0.132,0.128,0.129,0.128,0.122,0.124,0.119,0.118,0.125,0.119,0.115,0.117,0.119,0.112,0.116,0.115,0.115,0.114,0.108,0.113,0.112,0.113,0.112,0.112,0.112,0.118,0.111,0.11,0.114,0.11,0.111,0.107,0.102,0.101,0.106,0.108,0.103,0.102,0.1,0.106,0.103,0.109,0.106,0.104,0.111,0.113,0.107,0.106,0.114,0.114,0.112,0.122,0.118,0.115,0.114,0.12,0.116,0.121,0.137,0.151,0.178,0.186,0.232,0.233,0.242,0.258,0.219,0.21,0.206,0.152,0.111,0.0946,0.0889,0.0901,0.0878,0.0863,0.0711,0.0768,0.165,0.513,0.967,0.937,0.658,0.335,0.107,0.00836,0.0601,0.115,0.111,0.114,0.113,0.109,0.117,0.122,0.129,0.128,0.133,0,0,0,0,0,0,0,0,0,0,0,0,0,0,0,0,0,0,0,0,0,0,0,0,0,0,0,0
1,0.75,0.303,0.274,0.208,0.226,0.241,0.234,0.236,0.212,0.215,0.221,0.231,0.233,0.243,0.235,0.231,0.241,0.253,0.249,0.267,0.278,0.278,0.297,0.297,0.318,0.329,0.334,0.36,0.375,0.381,0.39,0.401,0.416,0.424,0.426,0.393,0.365,0.319,0.287,0.257,0.25,0.254,0.249,0.244,0.236,0.247,0.248,0.246,0.26,0.264,0.256,0.232,0.233,0.244,0.243,0.25,0.249,0.218,0.215,0.204,0.185,0.177,0.161,0.17,0.171,0.189,0.201,0.182,0.176,0.159,0.14,0.143,0.137,0.148,0.148,0.151,0.154,0.153,0.15,0.156,0.147,0.132,0.132,0.133,0.138,0.153,0.15,0.15,0.135,0.146,0.153,0.151,0.128,0.14,0.135,0.0887,0.102,0.0999,0.0924,0.0999,0.0856,0.0738,0.0645,0.0707,0.0744,0.0676,0.0558,0.0459,0,0.0465,0.171,0.417,0.867,0.939,0.516,0.171,0.11,0.0496,0.09,0.0999,0.0893,0.0757,0.0701,0.0713,0.0726,0.0682,0.0844,0.0887,0.0881,0.0918,0.104,0.117,0.138,0.13,0.126,0,0,0,0,0,0,0,0,0,0,0,0,0,0,0,0,0,0,0,0,0,0,0,0,0,0,0,0,0,0,0,0,0,0,0,0,0,0,0,0,0,0,0,0,0,0,0,0,0,0,0,0
0.997,0.657,0.414,0.0626,0,0.119,0.102,0.134,0.133,0.133,0.134,0.105,0.134,0.12,0.132,0.134,0.142,0.17,0.17,0.183,0.194,0.193,0.218,0.224,0.228,0.297,0.288,0.346,0.351,0.366,0.425,0.434,0.487,0.49,0.502,0.51,0.462,0.437,0.371,0.346,0.341,0.274,0.288,0.246,0.236,0.266,0.221,0.245,0.229,0.24,0.252,0.228,0.242,0.218,0.215,0.234,0.223,0.233,0.218,0.203,0.227,0.187,0.234,0.199,0.176,0.211,0.195,0.212,0.184,0.187,0.2,0.192,0.209,0.183,0.187,0.198,0.182,0.216,0.203,0.181,0.217,0.182,0.192,0.173,0.199,0.203,0.185,0.202,0.188,0.184,0.192,0.192,0.213,0.183,0.196,0.256,0.275,0.338,0.322,0.37,0.449,0.425,0.48,0.453,0.352,0.283,0.205,0.179,0.13,0.127,0.14,0.115,0.133,0.163,0.232,0.582,1,0.714,0.453,0.0921,0.0212,0.0967,0.125,0.0884,0.113,0.127,0.113,0.128,0.109,0.134,0.136,0.14,0.169,0.136,0.166,0.183,0.175,0.216,0.204,0,0,0,0,0,0,0,0,0,0,0,0,0,0,0,0,0,0,0,0,0,0,0,0,0,0,0,0,0,0,0,0,0,0,0,0,0,0,0,0,0,0,0,0,0,0,0,0,1
1,0.897,0.545,0.346,0.201,0.137,0.104,0.0936,0.0817,0.078,0.0813,0.0813,0.0833,0.0821,0.0887,0.0854,0.087,0.0928,0.101,0.104,0.108,0.125,0.138,0.149,0.16,0.178,0.189,0.215,0.248,0.281,0.305,0.338,0.369,0.382,0.383,0.38,0.345,0.306,0.26,0.216,0.18,0.159,0.147,0.14,0.127,0.133,0.129,0.13,0.129,0.129,0.13,0.132,0.132,0.127,0.129,0.127,0.123,0.127,0.12,0.114,0.11,0.108,0.104,0.0957,0.0932,0.0953,0.0866,0.0817,0.0788,0.0784,0.0788,0.0763,0.0817,0.0788,0.0767,0.0809,0.0776,0.0751,0.0714,0.0726,0.0722,0.0743,0.0813,0.0796,0.0759,0.071,0.0644,0.0705,0.0681,0.0652,0.0685,0.0615,0.0652,0.0648,0.0664,0.0644,0.0639,0.0714,0.0685,0.0697,0.0908,0.112,0.129,0.13,0.143,0.181,0.178,0.152,0.146,0.128,0.121,0.111,0.0842,0.0648,0.0499,0.0392,0.0359,0.0326,0.0305,0,0.0165,0.153,0.507,0.87,0.97,0.915,0.61,0.399,0.228,0.143,0.105,0.0788,0.071,0.0668,0.0722,0.0722,0.0743,0.0813,0.0751,0.0776,0.0858,0.0903,0.0912,0.0932,0.0949,0,0,0,0,0,0,0,0,0,0,0,0,0,0,0,0,0,0,0,0,0,0,0,0,0,0,0,0,0,0,0,0,0,0,0,0,0,0,0,0,0,0,0
1,0.733,0.287,0.0958,0.0929,0.0636,0.0556,0.0493,0.0436,0.039,0.0373,0.0476,0.047,0.0505,0.0591,0.0636,0.07,0.078,0.0826,0.0889,0.0923,0.103,0.116,0.127,0.141,0.165,0.182,0.209,0.232,0.257,0.288,0.306,0.327,0.338,0.329,0.308,0.279,0.241,0.197,0.158,0.133,0.117,0.107,0.0992,0.0975,0.0969,0.0866,0.0854,0.0894,0.0935,0.0946,0.0969,0.101,0.111,0.115,0.11,0.111,0.108,0.104,0.106,0.111,0.109,0.0929,0.082,0.0946,0.107,0.0975,0.0837,0.0717,0.0786,0.0774,0.0751,0.0717,0.0705,0.0757,0.078,0.0786,0.0803,0.101,0.14,0.155,0.162,0.183,0.205,0.221,0.237,0.197,0.134,0.107,0.0831,0.0482,0.043,0.0413,0.0464,0.0367,0.0206,0.0201,0.0287,0.0356,0.0183,0.00917,0,0.0132,0.211,0.711,0.973,0.697,0.261,0.111,0.103,0.0631,0.0419,0.0487,0.055,0.0459,0.0378,0.0493,0.0631,0.0528,0.0419,0.0528,0.0763,0.0797,0.0826,0.0906,0.0952,0,0,0,0,0,0,0,0,0,0,0,0,0,0,0,0,0,0,0,0,0,0,0,0,0,0,0,0,0,0,0,0,0,0,0,0,0,0,0,0,0,0,0,0,0,0,0,0,0,0,0,0,0,0,0,0,0,0,0,0,0,0
1,0.593,0.364,0.173,0.18,0.198,0.198,0.194,0.193,0.195,0.197,0.2,0.202,0.206,0.208,0.213,0.218,0.225,0.232,0.237,0.246,0.257,0.269,0.283,0.296,0.31,0.328,0.343,0.355,0.362,0.369,0.373,0.364,0.341,0.311,0.282,0.255,0.233,0.22,0.211,0.204,0.201,0.198,0.198,0.196,0.194,0.195,0.194,0.195,0.196,0.195,0.195,0.197,0.195,0.195,0.195,0.196,0.196,0.196,0.195,0.195,0.197,0.195,0.194,0.191,0.191,0.192,0.19,0.188,0.188,0.188,0.187,0.19,0.188,0.186,0.191,0.204,0.216,0.228,0.221,0.227,0.24,0.243,0.239,0.229,0.203,0.182,0.175,0.169,0.165,0.163,0.162,0.162,0.163,0.163,0.161,0.163,0.163,0.136,0,0.0594,0.306,0.678,0.999,0.663,0.396,0.194,0.168,0.193,0.197,0.192,0.192,0.196,0.195,0.198,0.202,0.203,0.208,0.214,0.217,0.223,0.228,0.233,0.24,0.251,0.262,0.276,0.291,0.308,0,0,0,0,0,0,0,0,0,0,0,0,0,0,0,0,0,0,0,0,0,0,0,0,0,0,0,0,0,0,0,0,0,0,0,0,0,0,0,0,0,0,0,0,0,0,0,0,0,0,0,0,0,0,0,0,0,0,0
0.994,0.494,0.16,0,0.112,0.145,0.131,0.166,0.117,0.154,0.146,0.143,0.171,0.126,0.159,0.145,0.138,0.17,0.125,0.159,0.152,0.146,0.175,0.12,0.161,0.152,0.136,0.167,0.104,0.132,0.104,0.0924,0.111,0.0579,0.11,0.0952,0.0901,0.138,0.0961,0.149,0.138,0.126,0.172,0.118,0.168,0.147,0.132,0.173,0.122,0.172,0.16,0.146,0.189,0.149,0.18,0.172,0.155,0.194,0.142,0.172,0.174,0.155,0.175,0.125,0.17,0.164,0.147,0.184,0.138,0.17,0.155,0.15,0.175,0.129,0.171,0.156,0.134,0.178,0.125,0.157,0.147,0.13,0.181,0.129,0.161,0.143,0.131,0.166,0.104,0.151,0.158,0.165,0.229,0.213,0.278,0.232,0.197,0.188,0.13,0.161,0.138,0.109,0.143,0.0947,0.124,0.111,0.0989,0.142,0.102,0.124,0.128,0.098,0.153,0.109,0.404,1,0.567,0.205,0.0411,0.0723,0.123,0.102,0.131,0.0873,0.125,0.12,0.102,0.13,0.0854,0.12,0.111,0.0854,0.129,0.0826,0.109,0.105,0.0877,0.119,0,0,0,0,0,0,0,0,0,0,0,0,0,0,0,0,0,0,0,0,0,0,0,0,0,0,0,0,0,0,0,0,0,0,0,0,0,0,0,0,0,0,0,0,0,0,0,0,0,1
0.933,0.953,0.78,0.653,0.643,0.615,0.0351,0.0194,0.0157,0,0.0148,0.0253,0.029,0.0219,0.0262,0.0354,0.0379,0.0416,0.0345,0.0604,0.0786,0.0656,0.569,0.644,0.625,0.646,0.646,0.654,0.675,0.682,0.689,0.678,0.673,0.674,0.654,0.638,0.0197,0.0619,0.0342,0.0388,0.0305,0.0401,0.0401,0.0342,0.0398,0.0512,0.0515,0.0391,0.037,0.0496,0.0471,0.0428,0.0447,0.0444,0.0428,0.0401,0.0345,0.032,0.045,0.0413,0.0435,0.0379,0.0404,0.0456,0.0348,0.0268,0.0416,0.0508,0.0462,0.032,0.0382,0.037,0.0348,0.0422,0.0274,0.0447,0.0336,0.601,0.635,0.634,0.655,0.666,0.643,0.682,0.66,0.639,0.265,0.0367,0.0253,0.0287,0.0228,0.0274,0.0191,0.0142,0.0151,0.0117,0.0222,0.471,0.761,0.866,1,0.817,0.692,0.674,0.631,0.0336,0.0364,0.0271,0.0247,0.0222,0.0351,0.0324,0.0373,0.0361,0.0327,0.0342,0.049,0.0468,0.0459,0.0499,0,0,0,0,0,0,0,0,0,0,0,0,0,0,0,0,0,0,0,0,0,0,0,0,0,0,0,0,0,0,0,0,0,0,0,0,0,0,0,0,0,0,0,0,0,0,0,0,0,0,0,0,0,0,0,0,0,0,0,0,0,0,0,0,0,0,0,1
1,0.593,0.349,0.122,0.0243,0.081,0.14,0.137,0.136,0.142,0.14,0.143,0.14,0.146,0.152,0.154,0.156,0.161,0.166,0.175,0.18,0.19,0.198,0.206,0.218,0.23,0.245,0.255,0.259,0.265,0.267,0.27,0.264,0.252,0.232,0.212,0.19,0.167,0.152,0.145,0.142,0.136,0.131,0.126,0.131,0.129,0.127,0.129,0.125,0.126,0.124,0.124,0.12,0.12,0.122,0.119,0.118,0.114,0.113,0.108,0.107,0.109,0.102,0.102,0.102,0.0966,0.1,0.094,0.096,0.0973,0.096,0.0913,0.092,0.0956,0.096,0.092,0.092,0.0946,0.095,0.102,0.0983,0.112,0.134,0.142,0.139,0.136,0.124,0.117,0.101,0.112,0.108,0.091,0.0686,0.0646,0.063,0.0626,0.0663,0.072,0.072,0.0723,0.078,0.084,0.079,0.0586,0.0763,0.22,0.643,0.99,0.511,0.298,0.079,0,0.045,0.108,0.108,0.111,0.114,0.115,0.117,0.117,0.124,0.125,0.125,0.129,0.134,0.141,0.143,0,0,0,0,0,0,0,0,0,0,0,0,0,0,0,0,0,0,0,0,0,0,0,0,0,0,0,0,0,0,0,0,0,0,0,0,0,0,0,0,0,0,0,0,0,0,0,0,0,0,0,0,0,0,0,0,0,0,0,0,0
1,0.532,0.198,0.0795,0.125,0.18,0.163,0.184,0.178,0.183,0.19,0.171,0.181,0.176,0.174,0.173,0.154,0.175,0.166,0.167,0.178,0.163,0.179,0.178,0.184,0.193,0.186,0.205,0.21,0.213,0.224,0.214,0.234,0.233,0.243,0.259,0.249,0.266,0.256,0.244,0.253,0.221,0.226,0.21,0.204,0.202,0.184,0.194,0.192,0.192,0.201,0.184,0.198,0.191,0.192,0.203,0.182,0.195,0.19,0.189,0.191,0.176,0.189,0.183,0.177,0.184,0.166,0.18,0.169,0.172,0.176,0.16,0.164,0.154,0.154,0.167,0.152,0.167,0.177,0.184,0.203,0.207,0.225,0.219,0.235,0.231,0.2,0.184,0.155,0.145,0.132,0.117,0.116,0.105,0.1,0.111,0.0935,0.0989,0.0981,0.1,0.105,0.0829,0.11,0.17,0.421,0.886,0.57,0.212,0.0232,0,0.081,0.0692,0.0783,0.0783,0.0745,0.0837,0.073,0.0741,0.0715,0.0635,0.0852,0.0665,0.0654,0.0627,0.0586,0.0726,0,0,0,0,0,0,0,0,0,0,0,0,0,0,0,0,0,0,0,0,0,0,0,0,0,0,0,0,0,0,0,0,0,0,0,0,0,0,0,0,0,0,0,0,0,0,0,0,0,0,0,0,0,0,0,0,0,0,0,0,0,1
1,0.976,0.508,0.391,0.283,0.217,0.189,0.207,0.191,0.192,0.187,0.181,0.197,0.193,0.176,0.187,0.179,0.195,0.18,0.185,0.187,0.181,0.203,0.189,0.18,0.175,0.189,0.19,0.184,0.189,0.215,0.211,0.23,0.241,0.257,0.289,0.291,0.315,0.315,0.31,0.323,0.317,0.306,0.286,0.28,0.267,0.249,0.252,0.244,0.243,0.249,0.232,0.261,0.245,0.246,0.257,0.251,0.259,0.247,0.253,0.264,0.265,0.271,0.265,0.262,0.255,0.241,0.252,0.246,0.25,0.256,0.247,0.259,0.256,0.263,0.264,0.246,0.257,0.25,0.254,0.256,0.238,0.252,0.243,0.245,0.242,0.232,0.25,0.244,0.245,0.253,0.266,0.3,0.309,0.307,0.309,0.319,0.326,0.307,0.292,0.244,0.202,0.174,0.151,0.151,0.157,0.14,0.159,0.148,0.102,0.0296,0,0.252,0.713,0.955,0.748,0.385,0.267,0.134,0.0755,0.0817,0.0817,0.0821,0.0812,0.0817,0.0773,0.0764,0.0962,0.0905,0.0874,0.0967,0.0817,0.0826,0.0512,0.0539,0.0592,0,0,0,0,0,0,0,0,0,0,0,0,0,0,0,0,0,0,0,0,0,0,0,0,0,0,0,0,0,0,0,0,0,0,0,0,0,0,0,0,0,0,0,0,0,0,0,0,0,0,0,1
1,0.781,0.693,0.706,0.632,0.591,0.559,0.486,0.457,0.443,0.45,0.452,0.467,0.457,0.467,0.491,0.465,0.463,0.441,0.43,0.414,0.418,0.377,0.352,0.326,0.307,0.262,0.227,0.155,0.107,0.0783,0.0429,0.0627,0,0.0388,0.0974,0.146,0.225,0.281,0.321,0.337,0.362,0.394,0.388,0.407,0.401,0.428,0.418,0.426,0.433,0.407,0.421,0.43,0.401,0.386,0.409,0.399,0.429,0.399,0.379,0.392,0.396,0.41,0.403,0.407,0.381,0.347,0.389,0.379,0.372,0.439,0.416,0.435,0.439,0.442,0.473,0.475,0.492,0.528,0.486,0.491,0.465,0.509,0.49,0.503,0.518,0.484,0.443,0.417,0.384,0.41,0.409,0.383,0.375,0.392,0.406,0.389,0.396,0.376,0.396,0.415,0.443,0.371,0.337,0.428,0.85,0.991,0.785,0.676,0.696,0.626,0.604,0.561,0.473,0.451,0.49,0.482,0.461,0.461,0.431,0.433,0.428,0.443,0.456,0.452,0.424,0.394,0.413,0,0,0,0,0,0,0,0,0,0,0,0,0,0,0,0,0,0,0,0,0,0,0,0,0,0,0,0,0,0,0,0,0,0,0,0,0,0,0,0,0,0,0,0,0,0,0,0,0,0,0,0,0,0,0,0,0,0,0,1
1,0.871,0.678,0.357,0.0512,0,0.0907,0.142,0.139,0.185,0.155,0.161,0.185,0.168,0.2,0.181,0.175,0.203,0.183,0.219,0.212,0.209,0.239,0.214,0.254,0.236,0.248,0.278,0.256,0.296,0.278,0.284,0.311,0.28,0.315,0.286,0.282,0.277,0.234,0.258,0.205,0.195,0.195,0.164,0.193,0.161,0.16,0.178,0.151,0.174,0.154,0.157,0.176,0.155,0.189,0.168,0.168,0.186,0.166,0.195,0.173,0.184,0.193,0.163,0.198,0.164,0.162,0.179,0.148,0.188,0.154,0.157,0.17,0.148,0.174,0.146,0.15,0.157,0.139,0.169,0.144,0.136,0.157,0.132,0.175,0.132,0.14,0.15,0.125,0.165,0.131,0.135,0.144,0.125,0.164,0.127,0.158,0.188,0.166,0.218,0.193,0.247,0.281,0.231,0.253,0.162,0.182,0.166,0.107,0.134,0.0957,0.103,0.116,0.0968,0.119,0.0684,0.0245,0.147,0.362,0.709,0.966,0.895,0.643,0.327,0.0601,0.0184,0.094,0.148,0.147,0.199,0.157,0.169,0.191,0.17,0.204,0.175,0.194,0.215,0.186,0.223,0.202,0.213,0.228,0,0,0,0,0,0,0,0,0,0,0,0,0,0,0,0,0,0,0,0,0,0,0,0,0,0,0,0,0,0,0,0,0,0,0,0,0,0,0,0,0,0,0,0,1
0.975,0.98,0.45,0.0915,0.0761,0.157,0.178,0.163,0.16,0.158,0.159,0.16,0.161,0.155,0.155,0.162,0.173,0.174,0.174,0.174,0.178,0.182,0.182,0.185,0.196,0.211,0.232,0.25,0.27,0.3,0.333,0.372,0.403,0.434,0.467,0.488,0.488,0.45,0.394,0.342,0.29,0.248,0.212,0.181,0.162,0.159,0.156,0.153,0.152,0.149,0.149,0.156,0.146,0.146,0.143,0.148,0.144,0.139,0.144,0.141,0.144,0.146,0.147,0.142,0.136,0.133,0.126,0.128,0.119,0.121,0.113,0.113,0.116,0.118,0.119,0.118,0.115,0.143,0.174,0.168,0.173,0.184,0.185,0.157,0.135,0.137,0.13,0.119,0.106,0.105,0.104,0.108,0.106,0.0979,0.0967,0.0923,0.0931,0.0902,0.0862,0.0425,0,0.157,0.438,1,0.896,0.369,0.07,0.0538,0.125,0.148,0.129,0.125,0.127,0.116,0.123,0.121,0.12,0.116,0.11,0.108,0.117,0.113,0.121,0,0,0,0,0,0,0,0,0,0,0,0,0,0,0,0,0,0,0,0,0,0,0,0,0,0,0,0,0,0,0,0,0,0,0,0,0,0,0,0,0,0,0,0,0,0,0,0,0,0,0,0,0,0,0,0,0,0,0,0,0,0,0,0,0
0.96,0.787,0.938,0.757,0.296,0.0393,0.0496,0.0683,0.242,0.366,0.305,0.34,0.398,0.394,0.302,0.326,0.383,0.336,0.354,0.323,0.335,0.292,0.336,0.309,0.314,0.287,0.295,0.367,0.3,0.342,0.357,0.363,0.411,0.435,0.459,0.441,0.504,0.451,0.516,0.476,0.541,0.585,0.546,0.588,0.573,0.547,0.557,0.527,0.429,0.524,0.496,0.403,0.489,0.443,0.435,0.447,0.428,0.431,0.408,0.393,0.416,0.372,0.424,0.419,0.414,0.443,0.458,0.402,0.495,0.461,0.39,0.452,0.45,0.43,0.43,0.421,0.413,0.437,0.41,0.456,0.462,0.529,0.547,0.586,0.551,0.478,0.49,0.502,0.479,0.526,0.449,0.43,0.438,0.344,0.433,0.297,0.383,0.374,0.406,0.395,0.39,0.397,0.416,0.376,0.422,0.293,0.27,0.417,0.793,1,0.998,0.964,0.876,0.545,0.0548,0,0.0993,0.157,0.304,0.295,0.339,0.44,0.431,0.416,0.36,0.388,0.358,0,0,0,0,0,0,0,0,0,0,0,0,0,0,0,0,0,0,0,0,0,0,0,0,0,0,0,0,0,0,0,0,0,0,0,0,0,0,0,0,0,0,0,0,0,0,0,0,0,0,0,0,0,0,0,0,0,0,0,0,1
0.988,0.627,0.216,0,0.123,0.273,0.3,0.318,0.33,0.342,0.343,0.351,0.364,0.365,0.377,0.379,0.384,0.399,0.408,0.42,0.429,0.453,0.477,0.508,0.545,0.578,0.621,0.667,0.705,0.724,0.741,0.748,0.714,0.655,0.585,0.503,0.452,0.397,0.361,0.335,0.322,0.315,0.315,0.306,0.301,0.293,0.304,0.29,0.295,0.302,0.294,0.295,0.303,0.302,0.303,0.308,0.305,0.311,0.307,0.318,0.31,0.309,0.315,0.311,0.317,0.309,0.312,0.3,0.298,0.297,0.297,0.295,0.295,0.294,0.29,0.291,0.291,0.294,0.295,0.294,0.288,0.291,0.29,0.286,0.286,0.285,0.279,0.284,0.282,0.286,0.281,0.286,0.286,0.282,0.284,0.287,0.282,0.291,0.294,0.298,0.295,0.3,0.297,0.293,0.3,0.332,0.364,0.386,0.423,0.441,0.413,0.382,0.42,0.376,0.322,0.292,0.275,0.278,0.273,0.278,0.287,0.285,0.286,0.291,0.317,0.434,0.461,0.656,1,0.875,0.428,0.127,0.0543,0.259,0.326,0.329,0.349,0.359,0.366,0.377,0.382,0.38,0.393,0.39,0.401,0.415,0.42,0,0,0,0,0,0,0,0,0,0,0,0,0,0,0,0,0,0,0,0,0,0,0,0,0,0,0,0,0,0,0,0,0,0,0,0,0,0,0,0,0
1,0.785,0.185,0.0574,0.0259,0.0546,0.144,0.179,0.176,0.179,0.177,0.178,0.184,0.189,0.198,0.198,0.201,0.202,0.207,0.204,0.214,0.214,0.223,0.228,0.234,0.236,0.242,0.262,0.273,0.306,0.324,0.352,0.372,0.405,0.432,0.445,0.466,0.481,0.466,0.455,0.429,0.385,0.343,0.298,0.254,0.217,0.19,0.168,0.156,0.142,0.135,0.139,0.131,0.123,0.123,0.136,0.136,0.128,0.142,0.144,0.15,0.15,0.15,0.158,0.151,0.148,0.15,0.147,0.143,0.144,0.143,0.141,0.137,0.129,0.123,0.121,0.117,0.118,0.118,0.112,0.106,0.108,0.108,0.112,0.115,0.109,0.113,0.107,0.127,0.124,0.126,0.123,0.136,0.143,0.177,0.196,0.198,0.224,0.249,0.235,0.211,0.183,0.173,0.152,0.119,0.108,0.0985,0.0976,0.0856,0.0833,0.0856,0.0985,0.0976,0.0583,0.0111,0.207,0.642,0.897,0.672,0.145,0.0398,0,0.0213,0.116,0.144,0.148,0.153,0.157,0.153,0.157,0.156,0.157,0.159,0.158,0.163,0.171,0.176,0.179,0.183,0.197,0,0,0,0,0,0,0,0,0,0,0,0,0,0,0,0,0,0,0,0,0,0,0,0,0,0,0,0,0,0,0,0,0,0,0,0,0,0,0,0,0,0,0,0,0,0,0,0
0.914,0.572,0.187,0.0511,0,0.0158,0.0463,0.0542,0.0613,0.0654,0.0703,0.0737,0.073,0.0794,0.0895,0.0914,0.0925,0.0997,0.111,0.119,0.134,0.144,0.161,0.171,0.195,0.219,0.243,0.262,0.278,0.293,0.304,0.317,0.302,0.291,0.262,0.224,0.186,0.158,0.137,0.124,0.116,0.115,0.105,0.0985,0.0963,0.091,0.0925,0.0929,0.097,0.101,0.105,0.114,0.115,0.119,0.123,0.127,0.131,0.129,0.127,0.13,0.128,0.128,0.121,0.12,0.12,0.114,0.115,0.108,0.107,0.107,0.114,0.123,0.135,0.165,0.187,0.185,0.179,0.188,0.184,0.179,0.15,0.152,0.126,0.104,0.0921,0.0974,0.0925,0.0936,0.0921,0.0865,0.0944,0.097,0.101,0.0989,0.103,0.129,0.301,0.444,0.775,1,0.694,0.308,0.146,0.0752,0.0842,0.12,0.131,0.128,0.132,0.137,0.139,0.14,0.146,0.144,0.149,0.157,0.167,0.172,0,0,0,0,0,0,0,0,0,0,0,0,0,0,0,0,0,0,0,0,0,0,0,0,0,0,0,0,0,0,0,0,0,0,0,0,0,0,0,0,0,0,0,0,0,0,0,0,0,0,0,0,0,0,0,0,0,0,0,0,0,0,0,0,0,0,0,0,0,1
0.967,0.599,0.282,0.0655,0.197,0.183,0.16,0.105,0.105,0.0979,0.0749,0.116,0.111,0.101,0.11,0.0962,0.138,0.133,0.151,0.16,0.14,0.176,0.18,0.193,0.21,0.218,0.281,0.295,0.325,0.358,0.357,0.4,0.389,0.45,0.363,0.285,0.245,0.205,0.189,0.158,0.123,0.146,0.148,0.13,0.137,0.105,0.134,0.142,0.141,0.141,0.123,0.143,0.111,0.129,0.146,0.126,0.138,0.134,0.145,0.158,0.136,0.137,0.153,0.143,0.124,0.0868,0.143,0.143,0.123,0.137,0.107,0.123,0.138,0.125,0.137,0.111,0.122,0.134,0.124,0.123,0.103,0.132,0.106,0.115,0.143,0.119,0.124,0.124,0.134,0.22,0.212,0.253,0.276,0.372,0.382,0.396,0.374,0.306,0.237,0.147,0.0911,0.106,0.0791,0.0647,0.0809,0.0485,0.0791,0.0689,0.0655,0.0936,0.0638,0.0213,0,0.288,0.513,0.784,1,0.758,0.403,0.0468,0.208,0.237,0.204,0.131,0.134,0.0936,0.109,0.102,0.111,0.133,0.104,0.118,0.139,0.147,0.17,0.169,0.173,0.186,0.203,0,0,0,0,0,0,0,0,0,0,0,0,0,0,0,0,0,0,0,0,0,0,0,0,0,0,0,0,0,0,0,0,0,0,0,0,0,0,0,0,0,0,0,0,0,0,0,0,1
1,0.698,0.481,0,0.0945,0.191,0.229,0.282,0.267,0.276,0.294,0.304,0.31,0.288,0.288,0.295,0.293,0.303,0.31,0.333,0.353,0.338,0.391,0.385,0.415,0.449,0.474,0.533,0.544,0.621,0.659,0.673,0.71,0.713,0.707,0.633,0.559,0.519,0.44,0.395,0.383,0.335,0.358,0.323,0.339,0.317,0.314,0.342,0.314,0.325,0.338,0.319,0.333,0.319,0.327,0.319,0.323,0.358,0.309,0.319,0.321,0.303,0.328,0.284,0.295,0.302,0.302,0.308,0.319,0.323,0.327,0.313,0.32,0.306,0.312,0.304,0.276,0.312,0.32,0.302,0.293,0.302,0.338,0.311,0.31,0.336,0.308,0.327,0.287,0.305,0.293,0.309,0.317,0.31,0.311,0.318,0.395,0.41,0.429,0.445,0.502,0.604,0.673,0.633,0.452,0.413,0.359,0.297,0.265,0.26,0.241,0.237,0.243,0.268,0.247,0.254,0.724,0.976,0.733,0.44,0.0194,0.0216,0.151,0.186,0.255,0.248,0.255,0.294,0.263,0.273,0.262,0.27,0.289,0.254,0.313,0.289,0.321,0.351,0.336,0.352,0,0,0,0,0,0,0,0,0,0,0,0,0,0,0,0,0,0,0,0,0,0,0,0,0,0,0,0,0,0,0,0,0,0,0,0,0,0,0,0,0,0,0,0,0,0,0,1
0.94,0.776,0.419,0.229,0.159,0.0758,0.0546,0.0551,0.041,0.0317,0.0286,0.0234,0.0313,0.0291,0.0251,0.022,0.0185,0.0216,0.019,0.00176,0.00661,0.00661,0,0.00705,0.00837,0.0106,0.0132,0.0141,0.0234,0.0326,0.0397,0.0485,0.0582,0.0727,0.0881,0.104,0.115,0.134,0.152,0.15,0.142,0.123,0.102,0.0811,0.0767,0.0591,0.0542,0.0546,0.052,0.0507,0.0489,0.0533,0.0397,0.0383,0.0401,0.0436,0.0436,0.0485,0.0586,0.0569,0.0538,0.0516,0.0542,0.0498,0.0502,0.0445,0.0494,0.0502,0.0595,0.0591,0.0635,0.0626,0.067,0.063,0.0657,0.063,0.0758,0.0679,0.0657,0.0608,0.0635,0.0617,0.0692,0.074,0.0714,0.0771,0.0701,0.0829,0.0846,0.0815,0.0771,0.078,0.0762,0.0784,0.0714,0.071,0.0639,0.0732,0.0895,0.0921,0.119,0.132,0.164,0.182,0.164,0.142,0.109,0.0705,0.0665,0.0604,0.0613,0.052,0.0569,0.048,0.0445,0.0551,0.0546,0.071,0.0745,0.0837,0.0749,0.0097,0.0639,0.182,0.458,0.892,1,0.56,0.312,0.23,0.146,0.0974,0.105,0.0864,0.0749,0.0723,0.0688,0.0732,0.0688,0.0745,0.0762,0.0705,0.0736,0.0705,0.0701,0.0727,0.0732,0.0745,0.0701,0.0718,0.082,0,0,0,0,0,0,0,0,0,0,0,0,0,0,0,0,0,0,0,0,0,0,0,0,0,0,0,0,0,0,0,0,0,0,0,0,1
0.937,0.578,0.166,0.0158,0,0.0552,0.0913,0.132,0.16,0.176,0.18,0.187,0.185,0.189,0.188,0.188,0.197,0.201,0.205,0.218,0.229,0.237,0.247,0.256,0.269,0.289,0.311,0.333,0.359,0.38,0.396,0.413,0.426,0.408,0.369,0.331,0.289,0.258,0.23,0.213,0.2,0.194,0.189,0.182,0.177,0.181,0.183,0.19,0.195,0.193,0.19,0.189,0.187,0.185,0.185,0.182,0.182,0.184,0.191,0.183,0.18,0.172,0.169,0.169,0.168,0.167,0.167,0.161,0.165,0.168,0.174,0.175,0.179,0.181,0.176,0.179,0.176,0.177,0.173,0.171,0.165,0.184,0.195,0.206,0.211,0.221,0.214,0.233,0.237,0.203,0.197,0.192,0.183,0.177,0.182,0.179,0.183,0.178,0.181,0.166,0.103,0.179,0.335,0.649,1,0.589,0.152,0.0406,0.0328,0.109,0.138,0.175,0.198,0.211,0.21,0.217,0.223,0.23,0.236,0.242,0.246,0.251,0.254,0.263,0.274,0.279,0,0,0,0,0,0,0,0,0,0,0,0,0,0,0,0,0,0,0,0,0,0,0,0,0,0,0,0,0,0,0,0,0,0,0,0,0,0,0,0,0,0,0,0,0,0,0,0,0,0,0,0,0,0,0,0,0,0,0,0,0,0
1,0.504,0.16,0,0.0301,0.121,0.166,0.2,0.198,0.21,0.218,0.216,0.23,0.232,0.231,0.24,0.247,0.252,0.247,0.266,0.277,0.28,0.295,0.301,0.321,0.333,0.351,0.362,0.375,0.389,0.402,0.402,0.394,0.368,0.35,0.308,0.298,0.274,0.261,0.244,0.244,0.243,0.24,0.225,0.217,0.23,0.238,0.228,0.23,0.228,0.232,0.245,0.24,0.233,0.239,0.232,0.233,0.229,0.228,0.231,0.231,0.235,0.229,0.255,0.28,0.277,0.291,0.31,0.303,0.308,0.28,0.271,0.246,0.221,0.207,0.212,0.205,0.202,0.2,0.198,0.151,0.279,0.546,0.905,0.748,0.36,0.041,0.0249,0.0467,0.154,0.176,0.203,0.211,0.21,0.219,0.225,0.229,0.225,0.232,0.236,0.235,0.249,0.25,0.265,0.269,0.27,0.274,0.277,0.29,0.307,0.318,0.327,0.351,0.366,0.377,0.382,0.368,0.339,0.316,0.289,0.267,0.251,0.235,0.224,0.219,0.216,0.218,0.212,0.209,0.213,0.21,0.202,0.207,0.206,0.2,0.217,0.205,0.212,0.217,0.215,0.208,0.204,0.21,0.214,0.205,0.202,0.206,0.213,0.193,0.201,0.204,0.208,0.21,0.238,0.264,0.258,0,0,0,0,0,0,0,0,0,0,0,0,0,0,0,0,0,0,0,0,0,0,0,0,0,0,0,0,0,0,0,0
1,0.656,0.226,0,0.115,0.264,0.299,0.31,0.325,0.334,0.34,0.344,0.358,0.356,0.376,0.375,0.382,0.398,0.412,0.426,0.437,0.462,0.488,0.52,0.557,0.593,0.641,0.677,0.714,0.748,0.755,0.76,0.747,0.685,0.615,0.542,0.459,0.407,0.375,0.356,0.339,0.329,0.33,0.325,0.321,0.313,0.318,0.316,0.316,0.325,0.32,0.32,0.322,0.321,0.325,0.329,0.324,0.328,0.329,0.331,0.325,0.326,0.328,0.33,0.324,0.32,0.313,0.312,0.308,0.305,0.313,0.301,0.304,0.295,0.304,0.298,0.296,0.305,0.306,0.307,0.305,0.302,0.308,0.3,0.305,0.297,0.297,0.308,0.296,0.299,0.293,0.299,0.309,0.31,0.305,0.334,0.362,0.388,0.428,0.449,0.426,0.392,0.431,0.398,0.347,0.316,0.289,0.298,0.296,0.295,0.291,0.285,0.293,0.292,0.316,0.439,0.462,0.617,0.986,0.888,0.489,0.172,0.0288,0.222,0.323,0.324,0.358,0.368,0.372,0.374,0.384,0.392,0.393,0.407,0.41,0,0,0,0,0,0,0,0,0,0,0,0,0,0,0,0,0,0,0,0,0,0,0,0,0,0,0,0,0,0,0,0,0,0,0,0,0,0,0,0,0,0,0,0,0,0,0,0,0,0,0,0,0
1,0.193,0.0232,0.0472,0.0274,0.0945,0.115,0.119,0.127,0.129,0.127,0.13,0.132,0.136,0.14,0.14,0.144,0.146,0.156,0.157,0.165,0.16,0.171,0.177,0.188,0.194,0.199,0.214,0.222,0.234,0.237,0.248,0.256,0.26,0.257,0.247,0.24,0.223,0.209,0.202,0.185,0.173,0.159,0.151,0.145,0.144,0.137,0.134,0.131,0.132,0.129,0.124,0.132,0.135,0.141,0.145,0.148,0.154,0.156,0.156,0.157,0.16,0.162,0.157,0.159,0.155,0.153,0.149,0.146,0.144,0.142,0.141,0.131,0.124,0.135,0.129,0.128,0.129,0.124,0.127,0.126,0.124,0.124,0.132,0.143,0.162,0.197,0.202,0.189,0.186,0.217,0.208,0.19,0.189,0.18,0.14,0.113,0.104,0.102,0.0949,0.0881,0.0877,0.0881,0.0839,0.0865,0.0919,0.0873,0.0839,0.0582,0.113,0.217,0.556,0.915,0.897,0.0957,0,0.0299,0.0194,0.0759,0.0932,0.104,0.104,0.105,0.104,0.109,0.113,0.111,0.114,0.121,0.124,0.128,0.127,0.131,0.135,0.147,0.152,0.16,0.165,0.175,0.19,0.199,0,0,0,0,0,0,0,0,0,0,0,0,0,0,0,0,0,0,0,0,0,0,0,0,0,0,0,0,0,0,0,0,0,0,0,0,0,0,0,0,0,0,0,0,0,0,0
0.937,0.794,0.329,0.14,0.0512,0.0872,0.173,0.124,0.106,0.0938,0.101,0.12,0.13,0.0872,0.118,0.122,0.141,0.134,0.15,0.149,0.182,0.179,0.205,0.222,0.236,0.305,0.3,0.345,0.363,0.415,0.438,0.46,0.478,0.474,0.452,0.425,0.391,0.334,0.276,0.263,0.219,0.18,0.175,0.154,0.161,0.131,0.15,0.15,0.145,0.128,0.14,0.141,0.161,0.13,0.12,0.118,0.108,0.105,0.125,0.154,0.116,0.13,0.131,0.156,0.138,0.132,0.149,0.125,0.125,0.132,0.128,0.12,0.133,0.136,0.108,0.156,0.126,0.118,0.127,0.139,0.142,0.132,0.141,0.158,0.191,0.217,0.249,0.24,0.235,0.287,0.269,0.239,0.228,0.175,0.13,0.124,0.106,0.114,0.0892,0.107,0.102,0.102,0.126,0.153,0,0.0805,0.595,1,0.838,0.359,0.159,0.0785,0.135,0.126,0.131,0.124,0.123,0.0845,0.122,0.11,0.133,0.104,0.127,0.122,0.138,0.138,0.162,0.168,0.174,0.19,0.193,0.24,0,0,0,0,0,0,0,0,0,0,0,0,0,0,0,0,0,0,0,0,0,0,0,0,0,0,0,0,0,0,0,0,0,0,0,0,0,0,0,0,0,0,0,0,0,0,0,0,0,0,0,0,0,0,0,0
1,0.809,0.403,0.188,0.0205,0,0.0696,0.112,0.116,0.111,0.104,0.111,0.107,0.112,0.126,0.127,0.128,0.141,0.142,0.155,0.168,0.181,0.195,0.207,0.219,0.221,0.232,0.251,0.271,0.292,0.318,0.335,0.342,0.355,0.349,0.344,0.336,0.317,0.292,0.258,0.229,0.208,0.2,0.192,0.182,0.183,0.182,0.18,0.174,0.163,0.162,0.155,0.152,0.156,0.148,0.154,0.158,0.163,0.17,0.169,0.163,0.169,0.167,0.169,0.169,0.167,0.153,0.145,0.154,0.164,0.162,0.159,0.151,0.148,0.151,0.144,0.137,0.137,0.124,0.134,0.137,0.157,0.164,0.164,0.158,0.156,0.148,0.141,0.144,0.136,0.138,0.135,0.144,0.152,0.171,0.178,0.208,0.213,0.226,0.268,0.271,0.266,0.273,0.238,0.23,0.224,0.184,0.152,0.151,0.148,0.138,0.14,0.129,0.123,0.107,0.163,0.469,0.903,0.964,0.738,0.341,0.143,0.00827,0.0579,0.148,0.161,0.162,0.171,0.176,0.174,0.175,0.185,0.2,0.205,0.201,0.204,0.205,0.2,0.203,0.209,0.227,0,0,0,0,0,0,0,0,0,0,0,0,0,0,0,0,0,0,0,0,0,0,0,0,0,0,0,0,0,0,0,0,0,0,0,0,0,0,0,0,0,0,0,0,0,0,0
1,0.488,0.114,0,0.0301,0.065,0.0609,0.051,0.0534,0.0517,0.0589,0.0561,0.0582,0.0681,0.0657,0.0712,0.0784,0.0808,0.0917,0.0941,0.112,0.134,0.142,0.154,0.182,0.2,0.236,0.264,0.291,0.31,0.33,0.336,0.323,0.277,0.231,0.183,0.148,0.12,0.0996,0.0927,0.0808,0.0797,0.0767,0.0753,0.0753,0.0777,0.0753,0.078,0.077,0.0743,0.0773,0.0791,0.0804,0.0852,0.0763,0.0753,0.0876,0.0838,0.0821,0.0815,0.0804,0.0835,0.0821,0.078,0.0787,0.0797,0.0767,0.0784,0.0767,0.0749,0.077,0.0828,0.0732,0.076,0.0777,0.0746,0.077,0.0743,0.0746,0.0681,0.0739,0.0715,0.0674,0.0753,0.0756,0.0671,0.0743,0.0729,0.0705,0.076,0.0743,0.0736,0.0773,0.0732,0.0746,0.077,0.0811,0.0794,0.0726,0.077,0.0849,0.0736,0.0791,0.0838,0.0787,0.0821,0.076,0.101,0.116,0.122,0.139,0.146,0.153,0.124,0.129,0.128,0.114,0.0982,0.0859,0.0749,0.0715,0.0698,0.0592,0.00274,0.0394,0.244,0.603,0.994,0.731,0.36,0.0592,0.0222,0.0684,0.0897,0.0828,0.0804,0.0791,0.0818,0.0862,0.0852,0.0869,0.0945,0.102,0.104,0.117,0.118,0.13,0.137,0.15,0.158,0.176,0.194,0,0,0,0,0,0,0,0,0,0,0,0,0,0,0,0,0,0,0,0,0,0,0,0,0,0,0,0,0,0,0,0,0,0,0,0
1,0.628,0.412,0.246,0.166,0.174,0.184,0.182,0.184,0.172,0.201,0.202,0.205,0.215,0.2,0.214,0.21,0.211,0.206,0.201,0.227,0.234,0.243,0.253,0.249,0.265,0.266,0.27,0.271,0.261,0.275,0.267,0.268,0.267,0.264,0.269,0.248,0.243,0.244,0.216,0.219,0.204,0.195,0.206,0.193,0.201,0.185,0.191,0.199,0.191,0.2,0.19,0.186,0.19,0.176,0.193,0.183,0.175,0.18,0.171,0.184,0.168,0.169,0.169,0.16,0.173,0.17,0.163,0.165,0.167,0.161,0.153,0.156,0.163,0.154,0.164,0.159,0.156,0.163,0.167,0.2,0.205,0.234,0.229,0.204,0.212,0.175,0.146,0.152,0.138,0.136,0.128,0.127,0.129,0.114,0.132,0.13,0.126,0.0747,0,0.0855,0.674,0.907,0.491,0.318,0.186,0.123,0.126,0.133,0.12,0.122,0.121,0.125,0.13,0.126,0.147,0.133,0.139,0.149,0.148,0.155,0.153,0.16,0.165,0.165,0.181,0,0,0,0,0,0,0,0,0,0,0,0,0,0,0,0,0,0,0,0,0,0,0,0,0,0,0,0,0,0,0,0,0,0,0,0,0,0,0,0,0,0,0,0,0,0,0,0,0,0,0,0,0,0,0,0,0,0,0,0,0,1
1,0.734,0.384,0.235,0.205,0.169,0.176,0.166,0.16,0.169,0.167,0.174,0.176,0.169,0.162,0.175,0.182,0.174,0.176,0.171,0.176,0.161,0.161,0.167,0.159,0.166,0.161,0.152,0.143,0.153,0.138,0.132,0.148,0.151,0.163,0.176,0.181,0.183,0.174,0.174,0.178,0.187,0.166,0.186,0.183,0.181,0.182,0.173,0.176,0.179,0.173,0.182,0.177,0.181,0.18,0.179,0.187,0.179,0.176,0.194,0.183,0.186,0.175,0.179,0.192,0.172,0.183,0.163,0.165,0.156,0.157,0.153,0.156,0.151,0.174,0.16,0.152,0.16,0.166,0.153,0.15,0.166,0.169,0.178,0.18,0.18,0.183,0.167,0.148,0.171,0.153,0.159,0.158,0.157,0.155,0.162,0.169,0.163,0.0975,0,0.0233,0.366,0.68,0.963,0.802,0.462,0.3,0.236,0.209,0.203,0.197,0.2,0.194,0.198,0.203,0.199,0.18,0.199,0.207,0.186,0.204,0.2,0.207,0,0,0,0,0,0,0,0,0,0,0,0,0,0,0,0,0,0,0,0,0,0,0,0,0,0,0,0,0,0,0,0,0,0,0,0,0,0,0,0,0,0,0,0,0,0,0,0,0,0,0,0,0,0,0,0,0,0,0,0,0,0,0,0,1
0.924,0.888,0.363,0.248,0.102,0.0476,0.0494,0.0449,0.0521,0.0373,0.0571,0.0562,0.0584,0.0723,0.0544,0.0651,0.0665,0.053,0.0665,0.0485,0.0606,0.0728,0.071,0.0651,0.0624,0.0683,0.0791,0.0737,0.0854,0.08,0.106,0.124,0.133,0.157,0.153,0.174,0.189,0.204,0.224,0.225,0.232,0.216,0.205,0.208,0.186,0.178,0.186,0.17,0.19,0.177,0.191,0.203,0.198,0.207,0.21,0.21,0.208,0.198,0.213,0.193,0.201,0.201,0.178,0.188,0.18,0.19,0.186,0.167,0.168,0.174,0.167,0.166,0.155,0.154,0.15,0.144,0.145,0.135,0.137,0.133,0.132,0.146,0.142,0.15,0.147,0.142,0.146,0.133,0.139,0.132,0.139,0.161,0.18,0.225,0.236,0.216,0.236,0.253,0.267,0.258,0.223,0.183,0.154,0.132,0.121,0.114,0.128,0.12,0.124,0.0957,0.00584,0,0.2,0.693,1,0.9,0.37,0.262,0.139,0.0894,0.0822,0.0876,0.0678,0.0629,0.0566,0.0629,0.0723,0.0615,0.0678,0.0692,0.0669,0.0696,0.0526,0.0633,0.0602,0.0512,0,0,0,0,0,0,0,0,0,0,0,0,0,0,0,0,0,0,0,0,0,0,0,0,0,0,0,0,0,0,0,0,0,0,0,0,0,0,0,0,0,0,0,0,0,0,0,0,0,0,0,1
0.931,0.931,0.219,0.0338,0,0.0214,0.111,0.138,0.135,0.135,0.145,0.141,0.151,0.157,0.167,0.17,0.172,0.177,0.182,0.182,0.186,0.186,0.192,0.199,0.208,0.22,0.241,0.259,0.274,0.298,0.324,0.355,0.386,0.418,0.45,0.467,0.477,0.492,0.484,0.457,0.418,0.366,0.309,0.257,0.216,0.188,0.163,0.154,0.138,0.14,0.143,0.14,0.146,0.146,0.146,0.146,0.144,0.145,0.152,0.154,0.154,0.156,0.16,0.157,0.162,0.161,0.16,0.155,0.15,0.149,0.146,0.149,0.147,0.149,0.151,0.157,0.158,0.159,0.15,0.154,0.161,0.159,0.15,0.15,0.148,0.143,0.149,0.141,0.14,0.137,0.14,0.138,0.134,0.137,0.137,0.141,0.146,0.149,0.148,0.152,0.153,0.154,0.16,0.185,0.2,0.228,0.232,0.252,0.253,0.244,0.205,0.187,0.173,0.143,0.125,0.118,0.114,0.12,0.108,0.115,0.126,0.135,0.137,0.0739,0.11,0.467,0.945,1,0.309,0.0766,0.0338,0.0539,0.146,0.183,0.183,0.188,0.186,0.194,0.199,0.209,0.197,0.207,0.22,0.219,0.219,0.227,0.24,0.234,0.238,0.252,0.27,0,0,0,0,0,0,0,0,0,0,0,0,0,0,0,0,0,0,0,0,0,0,0,0,0,0,0,0,0,0,0,0,0,0,0,0,0
0.937,0.485,0.147,0,0.026,0.151,0.19,0.22,0.242,0.257,0.283,0.284,0.286,0.276,0.281,0.296,0.286,0.307,0.298,0.311,0.308,0.308,0.317,0.318,0.331,0.345,0.358,0.371,0.391,0.418,0.45,0.474,0.494,0.52,0.544,0.569,0.576,0.584,0.568,0.541,0.508,0.463,0.418,0.378,0.337,0.316,0.289,0.305,0.299,0.299,0.301,0.297,0.313,0.317,0.33,0.329,0.326,0.32,0.327,0.325,0.33,0.336,0.333,0.324,0.315,0.326,0.324,0.321,0.318,0.315,0.31,0.31,0.308,0.308,0.316,0.312,0.31,0.31,0.3,0.302,0.305,0.307,0.303,0.307,0.299,0.301,0.307,0.305,0.316,0.332,0.33,0.337,0.351,0.324,0.351,0.356,0.378,0.397,0.394,0.422,0.426,0.38,0.332,0.305,0.295,0.295,0.295,0.285,0.287,0.287,0.287,0.29,0.29,0.277,0.285,0.291,0.276,0.374,0.387,0.497,1,0.933,0.366,0.0728,0.053,0.158,0.24,0.264,0.284,0.31,0.328,0.326,0.346,0.343,0.353,0.362,0.349,0.355,0.363,0.371,0.376,0.364,0.377,0.377,0,0,0,0,0,0,0,0,0,0,0,0,0,0,0,0,0,0,0,0,0,0,0,0,0,0,0,0,0,0,0,0,0,0,0,0,0,0,0,0,0,0,0,0
1,0.938,0.521,0.137,0,0.216,0.337,0.347,0.372,0.392,0.392,0.403,0.399,0.4,0.405,0.42,0.434,0.441,0.452,0.467,0.473,0.491,0.526,0.548,0.587,0.636,0.678,0.726,0.763,0.795,0.812,0.823,0.804,0.743,0.668,0.584,0.507,0.439,0.415,0.39,0.37,0.361,0.357,0.356,0.347,0.346,0.337,0.327,0.332,0.331,0.332,0.337,0.337,0.342,0.347,0.344,0.349,0.349,0.353,0.351,0.344,0.349,0.346,0.346,0.348,0.349,0.344,0.34,0.336,0.332,0.328,0.347,0.389,0.42,0.431,0.445,0.499,0.499,0.523,0.513,0.466,0.41,0.336,0.315,0.301,0.303,0.3,0.29,0.298,0.29,0.287,0.362,0.468,0.516,0.797,0.995,0.747,0.268,0.0376,0.0717,0.276,0.319,0.335,0.351,0.36,0.375,0.396,0.401,0.405,0.419,0.424,0.426,0.437,0.457,0.467,0.496,0.524,0.535,0,0,0,0,0,0,0,0,0,0,0,0,0,0,0,0,0,0,0,0,0,0,0,0,0,0,0,0,0,0,0,0,0,0,0,0,0,0,0,0,0,0,0,0,0,0,0,0,0,0,0,0,0,0,0,0,0,0,0,0,0,0,0,0,0,0,0,0,0,0
0.908,0.722,0.354,0.208,0.138,0.107,0.0714,0.0585,0.0482,0.0361,0.037,0.0328,0.0398,0.0387,0.0342,0.0359,0.0457,0.0451,0.0479,0.0451,0.0462,0.0552,0.0555,0.0728,0.0832,0.0975,0.106,0.103,0.139,0.16,0.173,0.183,0.19,0.192,0.189,0.181,0.167,0.139,0.111,0.0815,0.0583,0.0434,0.0317,0.0185,0.0196,0.0188,0.0235,0.0244,0.0193,0.0143,0.0202,0.0216,0.0188,0.0182,0.0151,0.0174,0.0171,0.0182,0.0193,0.0216,0.019,0.0261,0.0319,0.0367,0.0356,0.0297,0.0303,0.0311,0.0356,0.0339,0.0342,0.0347,0.0303,0.0333,0.0359,0.0406,0.0389,0.0417,0.0392,0.0465,0.0443,0.0471,0.0496,0.0518,0.0541,0.0532,0.0524,0.0571,0.0471,0.0437,0.0412,0.0403,0.0429,0.042,0.0389,0.0403,0.0325,0.0319,0.0342,0.0347,0.0314,0.0359,0.0451,0.0482,0.0485,0.0501,0.0543,0.0776,0.0938,0.0913,0.0824,0.0868,0.0779,0.0728,0.0423,0.0342,0.0235,0.0213,0.0174,0.0104,0.00728,0.0104,0.0137,0.0188,0.0261,0.0263,0,0.00784,0.167,0.287,0.461,0.787,1,0.624,0.317,0.176,0.18,0.134,0.111,0.0989,0.0927,0.091,0.0826,0.079,0.0768,0.0728,0.0723,0.077,0.0835,0.0882,0.0927,0.0975,0.106,0.115,0.119,0.129,0.145,0.159,0,0,0,0,0,0,0,0,0,0,0,0,0,0,0,0,0,0,0,0,0,0,0,0,0,0,0,0,0,0
0.97,0.365,0.124,0.0358,0.0132,0.0905,0.131,0.178,0.188,0.196,0.201,0.209,0.21,0.211,0.221,0.219,0.225,0.222,0.221,0.232,0.238,0.236,0.236,0.239,0.243,0.252,0.256,0.267,0.271,0.277,0.291,0.3,0.311,0.32,0.329,0.337,0.336,0.333,0.328,0.324,0.294,0.276,0.264,0.247,0.234,0.223,0.219,0.215,0.205,0.206,0.208,0.215,0.206,0.206,0.21,0.211,0.216,0.219,0.228,0.221,0.228,0.218,0.224,0.218,0.212,0.217,0.21,0.213,0.212,0.212,0.2,0.207,0.197,0.206,0.199,0.202,0.202,0.202,0.193,0.198,0.198,0.202,0.196,0.193,0.19,0.201,0.199,0.196,0.202,0.199,0.19,0.196,0.2,0.198,0.194,0.189,0.189,0.198,0.198,0.193,0.193,0.199,0.198,0.194,0.206,0.216,0.238,0.25,0.255,0.274,0.305,0.283,0.304,0.294,0.26,0.244,0.22,0.191,0.182,0.18,0.182,0.178,0.177,0.168,0.177,0.177,0.172,0.168,0.219,0.393,0.652,1,0.381,0.144,0.0431,0,0.0741,0.108,0.165,0.181,0.19,0.186,0.191,0.199,0.193,0.197,0.196,0.208,0.212,0.21,0.214,0.223,0.219,0.221,0.223,0.229,0.243,0,0,0,0,0,0,0,0,0,0,0,0,0,0,0,0,0,0,0,0,0,0,0,0,0,0,0,0,0,0,0
0.988,0.683,0.307,0.122,0.117,0.0487,0.0464,0.0371,0.0284,0.0632,0.0336,0.0394,0.0493,0.0342,0.0499,0.0319,0.0504,0.0748,0.0638,0.0777,0.0603,0.0632,0.0858,0.0951,0.115,0.102,0.115,0.129,0.141,0.189,0.197,0.229,0.25,0.26,0.304,0.287,0.27,0.281,0.252,0.241,0.192,0.184,0.169,0.147,0.151,0.126,0.13,0.127,0.114,0.124,0.108,0.108,0.114,0.105,0.133,0.119,0.129,0.142,0.132,0.167,0.132,0.144,0.157,0.168,0.19,0.157,0.155,0.185,0.177,0.196,0.178,0.183,0.176,0.157,0.177,0.126,0.138,0.143,0.128,0.147,0.107,0.132,0.133,0.115,0.143,0.125,0.129,0.139,0.119,0.123,0.0725,0.091,0.0875,0.0812,0.104,0.0719,0.0725,0.0742,0.0504,0.0997,0.0626,0.0765,0.0684,0.0539,0.0899,0.0493,0.0545,0.0609,0.0539,0.0986,0.0713,0.138,0.146,0.159,0.174,0.15,0.185,0.177,0.122,0.128,0.0922,0.0742,0.0777,0.062,0.0748,0.0539,0.0719,0.0684,0,0.101,0.392,0.784,1,0.671,0.3,0.126,0.122,0.087,0.0725,0.0777,0.0458,0.0626,0.0528,0.0545,0.0765,0.0545,0.0684,0.0632,0.0609,0.0922,0.0806,0.105,0.106,0.0997,0.119,0.107,0.115,0.108,0,0,0,0,0,0,0,0,0,0,0,0,0,0,0,0,0,0,0,0,0,0,0,0,0,0,0,0,0,0
0.99,0.978,0.51,0.0726,0.0396,0.236,0.339,0.417,0.44,0.449,0.449,0.447,0.464,0.471,0.465,0.475,0.486,0.482,0.48,0.466,0.475,0.486,0.485,0.483,0.486,0.488,0.486,0.487,0.492,0.49,0.494,0.497,0.507,0.504,0.516,0.529,0.54,0.546,0.558,0.576,0.583,0.588,0.583,0.567,0.538,0.519,0.497,0.484,0.468,0.456,0.448,0.44,0.441,0.447,0.444,0.438,0.442,0.447,0.45,0.46,0.462,0.463,0.463,0.457,0.447,0.452,0.444,0.44,0.428,0.42,0.419,0.415,0.418,0.403,0.406,0.402,0.406,0.408,0.407,0.4,0.402,0.414,0.405,0.411,0.412,0.409,0.406,0.399,0.396,0.397,0.408,0.402,0.399,0.397,0.405,0.408,0.403,0.407,0.406,0.421,0.414,0.431,0.459,0.476,0.474,0.472,0.46,0.432,0.436,0.437,0.433,0.412,0.417,0.408,0.388,0.382,0.383,0.375,0.381,0.392,0.395,0.401,0.394,0.401,0.348,0.443,0.703,0.987,1,0.66,0.175,0,0.273,0.356,0.426,0.468,0.477,0.483,0.483,0.491,0.495,0.495,0.498,0.5,0.502,0.513,0.513,0.517,0.516,0.52,0.522,0.529,0.525,0.529,0.531,0.535,0.538,0.541,0,0,0,0,0,0,0,0,0,0,0,0,0,0,0,0,0,0,0,0,0,0,0,0,0,0,0,0,0,0
0.988,0.857,0.578,0.439,0.103,0.0502,0.0745,0.154,0.3,0.45,0.526,0.554,0.558,0.574,0.578,0.582,0.582,0.593,0.579,0.583,0.592,0.597,0.611,0.595,0.587,0.599,0.596,0.601,0.596,0.597,0.595,0.597,0.593,0.598,0.595,0.596,0.602,0.603,0.587,0.585,0.59,0.59,0.586,0.586,0.586,0.585,0.581,0.583,0.584,0.573,0.573,0.574,0.577,0.569,0.574,0.583,0.578,0.582,0.581,0.585,0.586,0.587,0.589,0.581,0.583,0.577,0.583,0.584,0.581,0.588,0.586,0.579,0.578,0.576,0.583,0.573,0.575,0.571,0.566,0.573,0.567,0.575,0.577,0.568,0.579,0.576,0.577,0.577,0.569,0.573,0.577,0.576,0.572,0.568,0.576,0.576,0.575,0.576,0.575,0.578,0.577,0.582,0.581,0.569,0.575,0.572,0.575,0.576,0.575,0.574,0.574,0.575,0.591,0.585,0.595,0.615,0.625,0.649,0.642,0.6,0.626,0.607,0.599,0.595,0.595,0.591,0.571,0.557,0.556,0.56,0.553,0.554,0.552,0.553,0.553,0.554,0.55,0.562,0.559,0.57,0.589,0.669,0.689,0.79,1,0.868,0.573,0.403,0.107,0,0.0382,0.109,0.253,0.407,0.514,0.54,0.557,0.566,0.567,0.578,0.573,0.578,0.576,0.575,0.577,0.581,0.579,0.585,0.582,0.584,0.58,0,0,0,0,0,0,0,0,0,0,0,0,0,0,0,0,1
0.923,0.671,0.231,0.00501,0.0757,0.069,0.0562,0.054,0.0484,0.0518,0.0607,0.0601,0.064,0.0674,0.0618,0.0663,0.064,0.0707,0.0818,0.0768,0.0802,0.0991,0.104,0.111,0.117,0.121,0.125,0.139,0.155,0.183,0.212,0.232,0.273,0.307,0.327,0.348,0.36,0.344,0.303,0.257,0.199,0.163,0.12,0.0974,0.0813,0.0746,0.059,0.0702,0.0679,0.0624,0.0596,0.0612,0.0646,0.0546,0.0679,0.0646,0.0679,0.0741,0.0763,0.0774,0.083,0.0852,0.0874,0.0869,0.0813,0.083,0.0913,0.0963,0.0908,0.093,0.0869,0.0835,0.0974,0.0902,0.0813,0.0752,0.078,0.0796,0.0785,0.098,0.0869,0.0891,0.093,0.0857,0.0874,0.0885,0.0919,0.0863,0.0791,0.078,0.0791,0.078,0.0869,0.105,0.123,0.149,0.15,0.144,0.153,0.182,0.165,0.133,0.143,0.123,0.0958,0.0913,0.0735,0.0735,0.0724,0.0679,0.069,0.0674,0.0741,0.0618,0,0.00223,0.204,0.797,1,0.732,0.256,0.0523,0.119,0.14,0.117,0.0986,0.0963,0.104,0.102,0.0991,0.1,0.107,0.106,0.115,0.117,0.107,0.104,0.11,0.113,0.108,0.12,0.116,0.131,0.136,0.152,0.157,0.182,0,0,0,0,0,0,0,0,0,0,0,0,0,0,0,0,0,0,0,0,0,0,0,0,0,0,0,0,0,0,0,0,0,0,0,0,0,0,0,0,0
0.969,0.508,0.132,0.0662,0.000675,0.0446,0.0554,0.0439,0.029,0.023,0.0243,0.0257,0.0209,0.0385,0.0432,0.0425,0.0466,0.0594,0.0736,0.0972,0.0878,0.0837,0.0851,0.0878,0.0932,0.107,0.12,0.123,0.141,0.16,0.178,0.187,0.199,0.198,0.183,0.165,0.155,0.132,0.0959,0.0729,0.0425,0.0236,0.0304,0.0284,0.0155,0,0.00743,0.00338,0.0223,0.0304,0.0459,0.0203,0.0419,0.0716,0.0648,0.0608,0.0581,0.0452,0.0574,0.0466,0.0378,0.0405,0.0527,0.0358,0.052,0.05,0.0419,0.0392,0.0324,0.0419,0.0284,0.0203,0.0162,0.0196,0.0311,0.0358,0.0331,0.0419,0.0554,0.0533,0.0668,0.0743,0.0912,0.0932,0.0939,0.0912,0.0885,0.0797,0.0912,0.134,0.151,0.163,0.178,0.147,0.114,0.107,0.106,0.107,0.103,0.0864,0.0999,0.124,0.13,0.112,0.113,0.103,0.0844,0.0122,0.0506,0.203,0.473,0.925,1,0.523,0.184,0.141,0.0993,0.147,0.152,0.137,0.124,0.132,0.14,0.151,0.149,0.157,0.169,0.165,0.176,0.191,0.218,0.228,0.231,0.25,0.244,0.251,0,0,0,0,0,0,0,0,0,0,0,0,0,0,0,0,0,0,0,0,0,0,0,0,0,0,0,0,0,0,0,0,0,0,0,0,0,0,0,0,0,0,0,0,0,0,0,0,0,0,0,0
0.925,0.902,0.421,0.164,0.079,0.127,0.156,0.147,0.148,0.151,0.156,0.15,0.162,0.158,0.165,0.172,0.176,0.185,0.176,0.19,0.195,0.208,0.214,0.243,0.239,0.245,0.263,0.283,0.296,0.316,0.342,0.365,0.385,0.397,0.416,0.429,0.435,0.424,0.414,0.366,0.322,0.287,0.252,0.227,0.204,0.189,0.181,0.177,0.181,0.175,0.169,0.169,0.174,0.181,0.187,0.183,0.175,0.177,0.175,0.183,0.181,0.176,0.196,0.187,0.181,0.173,0.179,0.187,0.173,0.17,0.164,0.171,0.17,0.173,0.167,0.16,0.17,0.165,0.176,0.158,0.173,0.168,0.163,0.171,0.153,0.181,0.164,0.158,0.177,0.166,0.2,0.215,0.239,0.246,0.245,0.254,0.262,0.25,0.238,0.223,0.183,0.144,0.135,0.13,0.133,0.129,0.121,0.118,0.131,0.123,0.0925,0,0.0222,0.222,0.628,0.851,1,0.701,0.251,0.132,0.143,0.172,0.174,0.178,0.172,0.181,0.177,0.18,0.196,0.191,0.205,0.2,0.204,0.216,0.216,0.228,0.225,0.244,0.249,0,0,0,0,0,0,0,0,0,0,0,0,0,0,0,0,0,0,0,0,0,0,0,0,0,0,0,0,0,0,0,0,0,0,0,0,0,0,0,0,0,0,0,0,0,0,0,0,0
0.981,0.81,0.261,0.0591,0.0784,0.0992,0.079,0.0655,0.0661,0.0659,0.069,0.0683,0.0731,0.0784,0.0777,0.083,0.0838,0.0898,0.0981,0.0946,0.101,0.105,0.113,0.122,0.128,0.138,0.15,0.166,0.178,0.194,0.215,0.23,0.248,0.262,0.268,0.269,0.253,0.227,0.195,0.165,0.136,0.113,0.1,0.0902,0.0834,0.0797,0.0797,0.081,0.0762,0.0731,0.0779,0.0779,0.079,0.0779,0.0766,0.0795,0.0788,0.0795,0.0821,0.0819,0.0819,0.0827,0.081,0.0845,0.0814,0.0788,0.0792,0.0841,0.0792,0.0746,0.0768,0.0771,0.0782,0.0773,0.0707,0.0746,0.0736,0.0729,0.0751,0.0731,0.0727,0.0705,0.0738,0.0722,0.0687,0.0701,0.072,0.0648,0.0709,0.0681,0.069,0.0674,0.0665,0.0679,0.0661,0.0655,0.0733,0.0821,0.0928,0.117,0.117,0.115,0.134,0.132,0.12,0.117,0.0941,0.0871,0.0821,0.0639,0.0617,0.0585,0.0571,0.0554,0.0545,0.0543,0.0484,0,0.0611,0.203,0.597,1,0.717,0.185,0.0585,0.0893,0.103,0.0827,0.0784,0.0751,0.0753,0.0744,0.0775,0.083,0.0843,0.0869,0.09,0.0922,0.0963,0.093,0.0985,0.106,0.116,0.119,0.124,0,0,0,0,0,0,0,0,0,0,0,0,0,0,0,0,0,0,0,0,0,0,0,0,0,0,0,0,0,0,0,0,0,0,0,0,0,0,0,0,0,0,0
0.981,0.714,0.427,0.157,0,0.0421,0.149,0.214,0.256,0.24,0.256,0.279,0.264,0.283,0.262,0.282,0.288,0.267,0.304,0.268,0.3,0.314,0.295,0.314,0.309,0.335,0.345,0.358,0.409,0.408,0.467,0.49,0.478,0.504,0.47,0.485,0.462,0.426,0.417,0.373,0.368,0.342,0.308,0.304,0.269,0.273,0.266,0.251,0.26,0.247,0.264,0.273,0.272,0.289,0.262,0.297,0.302,0.291,0.322,0.296,0.313,0.302,0.287,0.303,0.287,0.303,0.284,0.285,0.277,0.258,0.283,0.277,0.26,0.282,0.264,0.297,0.286,0.268,0.29,0.269,0.284,0.273,0.267,0.285,0.263,0.277,0.269,0.265,0.276,0.263,0.277,0.253,0.256,0.263,0.247,0.281,0.269,0.26,0.278,0.263,0.277,0.263,0.269,0.275,0.257,0.273,0.258,0.25,0.273,0.26,0.274,0.256,0.263,0.28,0.266,0.293,0.291,0.305,0.324,0.316,0.358,0.339,0.315,0.316,0.266,0.297,0.265,0.257,0.261,0.251,0.271,0.245,0.245,0.348,0.483,0.723,1,0.773,0.453,0.135,0.0221,0.0139,0.121,0.212,0.215,0.253,0.223,0.245,0.251,0.238,0.268,0.243,0.252,0.268,0.251,0.276,0.258,0.275,0.288,0.271,0.308,0.29,0.319,0,0,0,0,0,0,0,0,0,0,0,0,0,0,0,0,0,0,0,0,0,0,0,0,1
1,0.97,0.696,0.378,0.154,0.0572,0.108,0.162,0.159,0.161,0.16,0.156,0.164,0.169,0.176,0.175,0.18,0.186,0.193,0.205,0.213,0.212,0.225,0.235,0.242,0.255,0.273,0.291,0.307,0.327,0.355,0.378,0.402,0.419,0.428,0.434,0.435,0.426,0.406,0.376,0.335,0.301,0.278,0.25,0.234,0.217,0.203,0.196,0.19,0.183,0.184,0.182,0.179,0.18,0.177,0.178,0.18,0.184,0.181,0.181,0.181,0.176,0.173,0.173,0.173,0.176,0.173,0.176,0.173,0.173,0.174,0.166,0.164,0.164,0.164,0.16,0.154,0.156,0.156,0.154,0.151,0.15,0.151,0.153,0.151,0.151,0.147,0.149,0.15,0.145,0.147,0.15,0.153,0.151,0.148,0.15,0.148,0.149,0.151,0.148,0.147,0.147,0.147,0.147,0.147,0.15,0.147,0.149,0.165,0.182,0.2,0.213,0.249,0.258,0.262,0.276,0.236,0.23,0.22,0.176,0.125,0.111,0.105,0.0964,0.0987,0.0912,0.0807,0.0628,0.137,0.486,0.938,0.947,0.742,0.373,0.125,0,0.0553,0.121,0.114,0.106,0.11,0.11,0.115,0.129,0.129,0.13,0.133,0.139,0.144,0.153,0.163,0.17,0.178,0.185,0.196,0.208,0.227,0.242,0.262,0.286,0,0,0,0,0,0,0,0,0,0,0,0,0,0,0,0,0,0,0,0,0,0,0,0,0,0,0,0
0.925,1,0.806,0.647,0.622,0.597,0.596,0.588,0.576,0.579,0.58,0.575,0.575,0.582,0.589,0.578,0.562,0.559,0.559,0.561,0.568,0.562,0.569,0.558,0.558,0.557,0.543,0.568,0.574,0.591,0.636,0.641,0.645,0.642,0.633,0.62,0.611,0.62,0.616,0.613,0.595,0.587,0.59,0.588,0.578,0.576,0.574,0.573,0.562,0.553,0.547,0.549,0.541,0.536,0.525,0.524,0.519,0.515,0.504,0.496,0.497,0.496,0.496,0.497,0.496,0.504,0.487,0.496,0.505,0.499,0.516,0.523,0.537,0.557,0.591,0.603,0.597,0.625,0.613,0.612,0.595,0.563,0.564,0.54,0.543,0.477,0.47,0.49,0.479,0.475,0.463,0.453,0.46,0.456,0.45,0.447,0.441,0.449,0.443,0.444,0.387,0.154,0,0.503,0.967,0.649,0.754,0.887,0.695,0.534,0.504,0.49,0.479,0.468,0.455,0.453,0.459,0.475,0.455,0.453,0.47,0.455,0.449,0.441,0,0,0,0,0,0,0,0,0,0,0,0,0,0,0,0,0,0,0,0,0,0,0,0,0,0,0,0,0,0,0,0,0,0,0,0,0,0,0,0,0,0,0,0,0,0,0,0,0,0,0,0,0,0,0,0,0,0,0,0,0,0,0,1
1,0.683,0.365,0.153,0.0933,0.086,0.0561,0.0367,0.0343,0.0345,0.0389,0.0289,0.0345,0.0316,0.0275,0.0328,0.0241,0.0238,0.0238,0.0304,0.0306,0.0309,0.0352,0.0367,0.0435,0.0552,0.0608,0.0712,0.0846,0.0984,0.121,0.125,0.141,0.138,0.139,0.129,0.121,0.113,0.0977,0.0817,0.0666,0.0583,0.0496,0.0467,0.0442,0.0454,0.0491,0.051,0.0428,0.0484,0.0518,0.0501,0.0399,0.0513,0.0571,0.0603,0.0532,0.0493,0.0515,0.0428,0.0515,0.0474,0.0411,0.0428,0.0476,0.0454,0.0467,0.0476,0.0396,0.0525,0.0464,0.0394,0.0416,0.0411,0.0365,0.0369,0.0401,0.0333,0.0418,0.042,0.043,0.0488,0.0508,0.0632,0.0702,0.0797,0.0778,0.0702,0.0765,0.0792,0.07,0.0778,0.0887,0.0659,0.0591,0.044,0.0343,0.0372,0.0348,0.0418,0.0474,0.0411,0.0394,0.0304,0.00656,0,0.174,0.421,0.645,0.899,0.789,0.416,0.2,0.114,0.106,0.0814,0.0476,0.0418,0.0406,0.0374,0.0391,0.0369,0.0311,0.0379,0.0408,0.0382,0.0355,0.0348,0.0253,0.0279,0,0,0,0,0,0,0,0,0,0,0,0,0,0,0,0,0,0,0,0,0,0,0,0,0,0,0,0,0,0,0,0,0,0,0,0,0,0,0,0,0,0,0,0,0,0,0,0,0,0,0,0,0,0,0,0,0,1
1,0.64,0.21,0.187,0.108,0.116,0.122,0.089,0.109,0.108,0.103,0.12,0.103,0.112,0.116,0.118,0.137,0.116,0.118,0.123,0.131,0.151,0.152,0.169,0.167,0.179,0.207,0.22,0.243,0.268,0.277,0.325,0.329,0.348,0.361,0.343,0.355,0.33,0.305,0.277,0.221,0.22,0.176,0.166,0.148,0.146,0.133,0.142,0.139,0.153,0.138,0.149,0.144,0.153,0.154,0.152,0.167,0.157,0.168,0.164,0.171,0.178,0.166,0.172,0.148,0.161,0.165,0.148,0.152,0.139,0.134,0.14,0.131,0.144,0.128,0.11,0.132,0.119,0.126,0.11,0.112,0.119,0.107,0.0833,0.101,0.111,0.119,0.097,0.102,0.104,0.0913,0.101,0.0987,0.111,0.138,0.153,0.186,0.209,0.24,0.237,0.239,0.249,0.231,0.186,0.128,0.0753,0.0594,0.0439,0.0565,0.0468,0.036,0.0628,0.036,0,0.166,0.445,0.933,0.607,0.162,0.146,0.0702,0.0976,0.0839,0.0725,0.0679,0.0576,0.0742,0.0571,0.0639,0.0628,0.0514,0.0959,0.0828,0.0982,0.0839,0.0833,0,0,0,0,0,0,0,0,0,0,0,0,0,0,0,0,0,0,0,0,0,0,0,0,0,0,0,0,0,0,0,0,0,0,0,0,0,0,0,0,0,0,0,0,0,0,0,0,0,0,0,1
1,0.413,0.267,0.29,0.371,0.413,0.409,0.416,0.43,0.422,0.434,0.43,0.45,0.473,0.469,0.49,0.491,0.503,0.532,0.532,0.542,0.543,0.534,0.526,0.488,0.47,0.428,0.398,0.368,0.358,0.358,0.336,0.311,0.331,0.341,0.315,0.354,0.358,0.344,0.292,0.279,0.262,0.25,0.256,0.241,0.238,0.221,0.215,0.23,0.221,0.222,0.212,0.196,0.232,0.222,0.211,0.217,0.208,0.231,0.22,0.218,0.211,0.218,0.227,0.223,0.218,0.228,0.228,0.238,0.243,0.237,0.238,0.225,0.138,0,0.301,0.791,0.735,0.358,0.235,0.328,0.369,0.396,0.41,0.413,0.418,0.418,0.417,0.442,0.442,0.459,0.463,0.47,0.499,0.501,0.524,0.547,0.535,0.545,0.522,0.52,0.495,0.453,0.432,0.387,0.394,0.377,0.35,0.342,0.339,0.358,0.341,0.369,0.389,0.349,0.304,0.288,0.272,0.266,0.264,0.261,0.259,0.233,0.244,0.239,0.238,0.238,0.228,0.251,0.251,0.256,0.255,0.243,0.255,0.267,0.261,0,0,0,0,0,0,0,0,0,0,0,0,0,0,0,0,0,0,0,0,0,0,0,0,0,0,0,0,0,0,0,0,0,0,0,0,0,0,0,0,0,0,0,0,0,0,0,0,0,0,0,1
1,0.791,0.212,0.0233,0.0565,0.128,0.131,0.124,0.132,0.132,0.128,0.139,0.137,0.139,0.143,0.136,0.15,0.15,0.157,0.159,0.162,0.177,0.182,0.191,0.211,0.221,0.257,0.28,0.313,0.343,0.367,0.402,0.426,0.444,0.432,0.38,0.329,0.266,0.214,0.176,0.147,0.139,0.126,0.122,0.115,0.107,0.114,0.113,0.11,0.113,0.111,0.12,0.121,0.124,0.127,0.122,0.135,0.129,0.13,0.126,0.12,0.126,0.121,0.117,0.117,0.109,0.114,0.107,0.106,0.104,0.0981,0.107,0.102,0.112,0.127,0.144,0.155,0.155,0.156,0.149,0.136,0.133,0.121,0.115,0.103,0.0912,0.0905,0.0845,0.0868,0.083,0.0789,0.0852,0.0833,0.089,0.0877,0.083,0.0647,0,0.109,0.306,0.843,0.971,0.501,0.0625,0.0192,0.094,0.139,0.135,0.136,0.133,0.132,0.146,0.142,0.15,0.151,0.151,0.163,0.159,0.168,0.172,0.175,0,0,0,0,0,0,0,0,0,0,0,0,0,0,0,0,0,0,0,0,0,0,0,0,0,0,0,0,0,0,0,0,0,0,0,0,0,0,0,0,0,0,0,0,0,0,0,0,0,0,0,0,0,0,0,0,0,0,0,0,0,0,0,0,0,0,0
0.959,0.692,0.62,0.414,0.199,0.183,0.11,0.107,0.108,0.0762,0.0965,0.108,0.0796,0.0894,0.0931,0.0977,0.0867,0.0781,0.112,0.0837,0.114,0.116,0.108,0.139,0.137,0.16,0.183,0.17,0.202,0.208,0.21,0.221,0.229,0.226,0.192,0.197,0.178,0.148,0.164,0.126,0.129,0.123,0.112,0.152,0.107,0.117,0.123,0.0995,0.129,0.106,0.121,0.126,0.117,0.135,0.11,0.113,0.0995,0.098,0.0924,0.0811,0.0999,0.0826,0.0781,0.083,0.0611,0.0826,0.0822,0.0679,0.0833,0.0618,0.0777,0.0728,0.0543,0.06,0.0664,0.0777,0.0852,0.0716,0.0799,0.0633,0.0611,0.0713,0.0592,0.0633,0.0494,0.072,0.0479,0.0475,0.0641,0.04,0.069,0.0709,0.0622,0.129,0.106,0.141,0.146,0.138,0.14,0.104,0.12,0.0875,0.0498,0.0716,0.0321,0.0437,0.043,0.0113,0.0403,0,0.043,0.206,0.625,1,0.621,0.557,0.318,0.153,0.149,0.0807,0.0603,0.0592,0.037,0.0645,0.0475,0.0551,0.052,0.0385,0.0664,0.0426,0.0818,0.063,0.0505,0.0822,0.0641,0.0867,0.101,0.0931,0.12,0,0,0,0,0,0,0,0,0,0,0,0,0,0,0,0,0,0,0,0,0,0,0,0,0,0,0,0,0,0,0,0,0,0,0,0,0,0,0,0,0,0,0,0,0,0,0,0,1
